timestamp,ekg
2020-01-01 12:00:00.000,0.0
2020-01-01 12:00:00.002,0.001326290803597445
2020-01-01 12:00:00.004,0.0026525792741856125
2020-01-01 12:00:00.006,0.003978863078759329
2020-01-01 12:00:00.008,0.005305139884321629
2020-01-01 12:00:00.010,0.006631407357887859
2020-01-01 12:00:00.012,0.007957663166489779
2020-01-01 12:00:00.014,0.00928390497717967
2020-01-01 12:00:00.016,0.010610130457034435
2020-01-01 12:00:00.018,0.011936337273159707
2020-01-01 12:00:00.020,0.013262523092693941
2020-01-01 12:00:00.022,0.014588685582812538
2020-01-01 12:00:00.024,0.015914822410731926
2020-01-01 12:00:00.026,0.017240931243713682
2020-01-01 12:00:00.028,0.01856700974906862
2020-01-01 12:00:00.030,0.019893055594160904
2020-01-01 12:00:00.032,0.021219066446412155
2020-01-01 12:00:00.034,0.022545039973305547
2020-01-01 12:00:00.036,0.023870973842389894
2020-01-01 12:00:00.038,0.025196865721283795
2020-01-01 12:00:00.040,0.0265227132776797
2020-01-01 12:00:00.042,0.02784851417934802
2020-01-01 12:00:00.044,0.02917426609414124
2020-01-01 12:00:00.046,0.030499966689998013
2020-01-01 12:00:00.048,0.03182561363494727
2020-01-01 12:00:00.050,0.033151204597112315
2020-01-01 12:00:00.052,0.03447673724471491
2020-01-01 12:00:00.054,0.03580220924607942
2020-01-01 12:00:00.056,0.03712761826963689
2020-01-01 12:00:00.058,0.03845296198392911
2020-01-01 12:00:00.060,0.039778238057612804
2020-01-01 12:00:00.062,0.041103444159463653
2020-01-01 12:00:00.064,0.0424285779583804
2020-01-01 12:00:00.066,0.04375363712338901
2020-01-01 12:00:00.068,0.04507861932364672
2020-01-01 12:00:00.070,0.04640352222844614
2020-01-01 12:00:00.072,0.04772834350721937
2020-01-01 12:00:00.074,0.04905308082954211
2020-01-01 12:00:00.076,0.05037773186513773
2020-01-01 12:00:00.078,0.05170229428388137
2020-01-01 12:00:00.080,0.053026765755804076
2020-01-01 12:00:00.082,0.054351143951096866
2020-01-01 12:00:00.084,0.055675426540114814
2020-01-01 12:00:00.086,0.056999611193381206
2020-01-01 12:00:00.088,0.05832369558159159
2020-01-01 12:00:00.090,0.05964767737561785
2020-01-01 12:00:00.092,0.0609715542465124
2020-01-01 12:00:00.094,0.06229532386551217
2020-01-01 12:00:00.096,0.06361898390404276
2020-01-01 12:00:00.098,0.06494253203372255
2020-01-01 12:00:00.100,0.06626596592636677
2020-01-01 12:00:00.102,0.06758928325399154
2020-01-01 12:00:00.104,0.06891248168881811
2020-01-01 12:00:00.106,0.07023555890327683
2020-01-01 12:00:00.108,0.07155851257001125
2020-01-01 12:00:00.110,0.0728813403618823
2020-01-01 12:00:00.112,0.0742040399519723
2020-01-01 12:00:00.114,0.0755266090135891
2020-01-01 12:00:00.116,0.07684904522027013
2020-01-01 12:00:00.118,0.07817134624578653
2020-01-01 12:00:00.120,0.07949350976414725
2020-01-01 12:00:00.122,0.0808155334496031
2020-01-01 12:00:00.124,0.08213741497665088
2020-01-01 12:00:00.126,0.08345915202003741
2020-01-01 12:00:00.128,0.08478074225476373
2020-01-01 12:00:00.130,0.08610218335608907
2020-01-01 12:00:00.132,0.08742347299953501
2020-01-01 12:00:00.134,0.08874460886088958
2020-01-01 12:00:00.136,0.09006558861621128
2020-01-01 12:00:00.138,0.09138640994183318
2020-01-01 12:00:00.140,0.09270707051436715
2020-01-01 12:00:00.142,0.09402756801070772
2020-01-01 12:00:00.144,0.0953479001080363
2020-01-01 12:00:00.146,0.09666806448382531
2020-01-01 12:00:00.148,0.0979880588158421
2020-01-01 12:00:00.150,0.09930788078215325
2020-01-01 12:00:00.152,0.10062752806112844
2020-01-01 12:00:00.154,0.10194699833144467
2020-01-01 12:00:00.156,0.10326628927209032
2020-01-01 12:00:00.158,0.10458539856236922
2020-01-01 12:00:00.160,0.10590432388190468
2020-01-01 12:00:00.162,0.10722306291064371
2020-01-01 12:00:00.164,0.10854161332886093
2020-01-01 12:00:00.166,0.10985997281716278
2020-01-01 12:00:00.168,0.11117813905649158
2020-01-01 12:00:00.170,0.11249610972812953
2020-01-01 12:00:00.172,0.11381388251370284
2020-01-01 12:00:00.174,0.11513145509518587
2020-01-01 12:00:00.176,0.11644882515490511
2020-01-01 12:00:00.178,0.11776599037554326
2020-01-01 12:00:00.180,0.11908294844014346
2020-01-01 12:00:00.182,0.1203996970321131
2020-01-01 12:00:00.184,0.12171623383522813
2020-01-01 12:00:00.186,0.12303255653363704
2020-01-01 12:00:00.188,0.12434866281186492
2020-01-01 12:00:00.190,0.12566455035481758
2020-01-01 12:00:00.192,0.12698021684778552
2020-01-01 12:00:00.194,0.1282956599764482
2020-01-01 12:00:00.196,0.12961087742687794
2020-01-01 12:00:00.198,0.13092586688554395
2020-01-01 12:00:00.200,0.1322406260393166
2020-01-01 12:00:00.202,0.13355515257547135
2020-01-01 12:00:00.204,0.1348694441816928
2020-01-01 12:00:00.206,0.13618349854607886
2020-01-01 12:00:00.208,0.13749731335714477
2020-01-01 12:00:00.210,0.13881088630382707
2020-01-01 12:00:00.212,0.1401242150754878
2020-01-01 12:00:00.214,0.14143729736191857
2020-01-01 12:00:00.216,0.14275013085334448
2020-01-01 12:00:00.218,0.14406271324042833
2020-01-01 12:00:00.220,0.1453750422142746
2020-01-01 12:00:00.222,0.14668711546643357
2020-01-01 12:00:00.224,0.14799893068890527
2020-01-01 12:00:00.226,0.14931048557414367
2020-01-01 12:00:00.228,0.1506217778150607
2020-01-01 12:00:00.230,0.1519328051050303
2020-01-01 12:00:00.232,0.1532435651378924
2020-01-01 12:00:00.234,0.15455405560795712
2020-01-01 12:00:00.236,0.15586427421000873
2020-01-01 12:00:00.238,0.15717421863930972
2020-01-01 12:00:00.240,0.15848388659160487
2020-01-01 12:00:00.242,0.1597932757631253
2020-01-01 12:00:00.244,0.16110238385059253
2020-01-01 12:00:00.246,0.16241120855122249
2020-01-01 12:00:00.248,0.16371974756272964
2020-01-01 12:00:00.250,0.1650279985833309
2020-01-01 12:00:00.252,0.16633595931174988
2020-01-01 12:00:00.254,0.1676436274472208
2020-01-01 12:00:00.256,0.16895100068949254
2020-01-01 12:00:00.258,0.1702580767388327
2020-01-01 12:00:00.260,0.1715648532960317
2020-01-01 12:00:00.262,0.17287132806240674
2020-01-01 12:00:00.264,0.17417749873980592
2020-01-01 12:00:00.266,0.17548336303061227
2020-01-01 12:00:00.268,0.17678891863774765
2020-01-01 12:00:00.270,0.17809416326467706
2020-01-01 12:00:00.272,0.17939909461541242
2020-01-01 12:00:00.274,0.18070371039451674
2020-01-01 12:00:00.276,0.18200800830710823
2020-01-01 12:00:00.278,0.1833119860588641
2020-01-01 12:00:00.280,0.18461564135602482
2020-01-01 12:00:00.282,0.18591897190539805
2020-01-01 12:00:00.284,0.1872219754143627
2020-01-01 12:00:00.286,0.18852464959087295
2020-01-01 12:00:00.288,0.18982699214346238
2020-01-01 12:00:00.290,0.19112900078124775
2020-01-01 12:00:00.292,0.19243067321393334
2020-01-01 12:00:00.294,0.19373200715181474
2020-01-01 12:00:00.296,0.19503300030578297
2020-01-01 12:00:00.298,0.1963336503873286
2020-01-01 12:00:00.300,0.1976339551085456
2020-01-01 12:00:00.302,0.1989339121821354
2020-01-01 12:00:00.304,0.2002335193214111
2020-01-01 12:00:00.306,0.20153277424030122
2020-01-01 12:00:00.308,0.2028316746533539
2020-01-01 12:00:00.310,0.2041302182757409
2020-01-01 12:00:00.312,0.2054284028232616
2020-01-01 12:00:00.314,0.20672622601234691
2020-01-01 12:00:00.316,0.2080236855600635
2020-01-01 12:00:00.318,0.20932077918411765
2020-01-01 12:00:00.320,0.21061750460285927
2020-01-01 12:00:00.322,0.2119138595352861
2020-01-01 12:00:00.324,0.21320984170104745
2020-01-01 12:00:00.326,0.21450544882044845
2020-01-01 12:00:00.328,0.21580067861445382
2020-01-01 12:00:00.330,0.21709552880469213
2020-01-01 12:00:00.332,0.2183899971134596
2020-01-01 12:00:00.334,0.21968408126372435
2020-01-01 12:00:00.336,0.22097777897913012
2020-01-01 12:00:00.338,0.22227108798400042
2020-01-01 12:00:00.340,0.22356400600334253
2020-01-01 12:00:00.342,0.22485653076285153
2020-01-01 12:00:00.344,0.2261486599889142
2020-01-01 12:00:00.346,0.22744039140861316
2020-01-01 12:00:00.348,0.22873172274973075
2020-01-01 12:00:00.350,0.23002265174075306
2020-01-01 12:00:00.352,0.23131317611087396
2020-01-01 12:00:00.354,0.23260329358999896
2020-01-01 12:00:00.356,0.2338930019087495
2020-01-01 12:00:00.358,0.23518229879846664
2020-01-01 12:00:00.360,0.23647118199121514
2020-01-01 12:00:00.362,0.2377596492197875
2020-01-01 12:00:00.364,0.23904769821770797
2020-01-01 12:00:00.366,0.2403353267192364
2020-01-01 12:00:00.368,0.2416225324593724
2020-01-01 12:00:00.370,0.24290931317385922
2020-01-01 12:00:00.372,0.24419566659918765
2020-01-01 12:00:00.374,0.24548159047260026
2020-01-01 12:00:00.376,0.2467670825320951
2020-01-01 12:00:00.378,0.2480521405164298
2020-01-01 12:00:00.380,0.2493367621651257
2020-01-01 12:00:00.382,0.2506209452184715
2020-01-01 12:00:00.384,0.2519046874175275
2020-01-01 12:00:00.386,0.25318798650412944
2020-01-01 12:00:00.388,0.25447084022089256
2020-01-01 12:00:00.390,0.25575324631121554
2020-01-01 12:00:00.392,0.25703520251928436
2020-01-01 12:00:00.394,0.2583167065900765
2020-01-01 12:00:00.396,0.2595977562693646
2020-01-01 12:00:00.398,0.2608783493037207
2020-01-01 12:00:00.400,0.26215848344052023
2020-01-01 12:00:00.402,0.2634381564279456
2020-01-01 12:00:00.404,0.2647173660149906
2020-01-01 12:00:00.406,0.2659961099514639
2020-01-01 12:00:00.408,0.2672743859879935
2020-01-01 12:00:00.410,0.26855219187603063
2020-01-01 12:00:00.412,0.26982952536785304
2020-01-01 12:00:00.414,0.27110638421656985
2020-01-01 12:00:00.416,0.27238276617612495
2020-01-01 12:00:00.418,0.27365866900130104
2020-01-01 12:00:00.420,0.2749340904477239
2020-01-01 12:00:00.422,0.27620902827186566
2020-01-01 12:00:00.424,0.27748348023104963
2020-01-01 12:00:00.426,0.2787574440834534
2020-01-01 12:00:00.428,0.2800309175881133
2020-01-01 12:00:00.430,0.2813038985049284
2020-01-01 12:00:00.432,0.28257638459466383
2020-01-01 12:00:00.434,0.2838483736189556
2020-01-01 12:00:00.436,0.28511986334031375
2020-01-01 12:00:00.438,0.28639085152212684
2020-01-01 12:00:00.440,0.28766133592866544
2020-01-01 12:00:00.442,0.28893131432508645
2020-01-01 12:00:00.444,0.29020078447743697
2020-01-01 12:00:00.446,0.29146974415265775
2020-01-01 12:00:00.448,0.29273819111858784
2020-01-01 12:00:00.450,0.29400612314396807
2020-01-01 12:00:00.452,0.295273537998445
2020-01-01 12:00:00.454,0.296540433452575
2020-01-01 12:00:00.456,0.2978068072778281
2020-01-01 12:00:00.458,0.2990726572465919
2020-01-01 12:00:00.460,0.3003379811321753
2020-01-01 12:00:00.462,0.3016027767088129
2020-01-01 12:00:00.464,0.30286704175166845
2020-01-01 12:00:00.466,0.3041307740368389
2020-01-01 12:00:00.468,0.3053939713413586
2020-01-01 12:00:00.470,0.30665663144320254
2020-01-01 12:00:00.472,0.30791875212129105
2020-01-01 12:00:00.474,0.30918033115549315
2020-01-01 12:00:00.476,0.31044136632663066
2020-01-01 12:00:00.478,0.31170185541648215
2020-01-01 12:00:00.480,0.31296179620778664
2020-01-01 12:00:00.482,0.3142211864842478
2020-01-01 12:00:00.484,0.3154800240305375
2020-01-01 12:00:00.486,0.31673830663230007
2020-01-01 12:00:00.488,0.31799603207615584
2020-01-01 12:00:00.490,0.3192531981497054
2020-01-01 12:00:00.492,0.3205098026415331
2020-01-01 12:00:00.494,0.32176584334121133
2020-01-01 12:00:00.496,0.3230213180393041
2020-01-01 12:00:00.498,0.324276224527371
2020-01-01 12:00:00.500,0.3255305605979712
2020-01-01 12:00:00.502,0.32678432404466734
2020-01-01 12:00:00.504,0.3280375126620292
2020-01-01 12:00:00.506,0.32929012424563775
2020-01-01 12:00:00.508,0.330542156592089
2020-01-01 12:00:00.510,0.33179360749899794
2020-01-01 12:00:00.512,0.33304447476500215
2020-01-01 12:00:00.514,0.33429475618976606
2020-01-01 12:00:00.516,0.3355444495739846
2020-01-01 12:00:00.518,0.3367935527193869
2020-01-01 12:00:00.520,0.33804206342874055
2020-01-01 12:00:00.522,0.33928997950585515
2020-01-01 12:00:00.524,0.3405372987555864
2020-01-01 12:00:00.526,0.3417840189838398
2020-01-01 12:00:00.528,0.3430301379975745
2020-01-01 12:00:00.530,0.3442756536048073
2020-01-01 12:00:00.532,0.3455205636146162
2020-01-01 12:00:00.534,0.34676486583714483
2020-01-01 12:00:00.536,0.34800855808360576
2020-01-01 12:00:00.538,0.34925163816628446
2020-01-01 12:00:00.540,0.3504941038985434
2020-01-01 12:00:00.542,0.3517359530948255
2020-01-01 12:00:00.544,0.35297718357065855
2020-01-01 12:00:00.546,0.3542177931426582
2020-01-01 12:00:00.548,0.3554577796285328
2020-01-01 12:00:00.550,0.3566971408470864
2020-01-01 12:00:00.552,0.3579358746182231
2020-01-01 12:00:00.554,0.3591739787629507
2020-01-01 12:00:00.556,0.36041145110338435
2020-01-01 12:00:00.558,0.3616482894627508
2020-01-01 12:00:00.560,0.36288449166539194
2020-01-01 12:00:00.562,0.36412005553676857
2020-01-01 12:00:00.564,0.36535497890346463
2020-01-01 12:00:00.566,0.3665892595931904
2020-01-01 12:00:00.568,0.3678228954347869
2020-01-01 12:00:00.570,0.36905588425822927
2020-01-01 12:00:00.572,0.37028822389463106
2020-01-01 12:00:00.574,0.3715199121762475
2020-01-01 12:00:00.576,0.37275094693647975
2020-01-01 12:00:00.578,0.3739813260098785
2020-01-01 12:00:00.580,0.3752110472321477
2020-01-01 12:00:00.582,0.37644010844014875
2020-01-01 12:00:00.584,0.3776685074719039
2020-01-01 12:00:00.586,0.3788962421666001
2020-01-01 12:00:00.588,0.3801233103645931
2020-01-01 12:00:00.590,0.3813497099074109
2020-01-01 12:00:00.592,0.3825754386377577
2020-01-01 12:00:00.594,0.38380049439951797
2020-01-01 12:00:00.596,0.38502487503775945
2020-01-01 12:00:00.598,0.38624857839873794
2020-01-01 12:00:00.600,0.3874716023299003
2020-01-01 12:00:00.602,0.3886939446798887
2020-01-01 12:00:00.604,0.3899156032985442
2020-01-01 12:00:00.606,0.3911365760369105
2020-01-01 12:00:00.608,0.3923568607472379
2020-01-01 12:00:00.610,0.39357645528298696
2020-01-01 12:00:00.612,0.39479535749883227
2020-01-01 12:00:00.614,0.39601356525066617
2020-01-01 12:00:00.616,0.39723107639560273
2020-01-01 12:00:00.618,0.3984478887919813
2020-01-01 12:00:00.620,0.3996640002993704
2020-01-01 12:00:00.622,0.4008794087785714
2020-01-01 12:00:00.624,0.4020941120916224
2020-01-01 12:00:00.626,0.40330810810180184
2020-01-01 12:00:00.628,0.40452139467363235
2020-01-01 12:00:00.630,0.4057339696728846
2020-01-01 12:00:00.632,0.40694583096658093
2020-01-01 12:00:00.634,0.408156976422999
2020-01-01 12:00:00.636,0.4093674039116757
2020-01-01 12:00:00.638,0.4105771113034109
2020-01-01 12:00:00.640,0.4117860964702712
2020-01-01 12:00:00.642,0.4129943572855936
2020-01-01 12:00:00.644,0.41420189162398907
2020-01-01 12:00:00.646,0.41540869736134695
2020-01-01 12:00:00.648,0.4166147723748376
2020-01-01 12:00:00.650,0.4178201145429174
2020-01-01 12:00:00.652,0.4190247217453314
2020-01-01 12:00:00.654,0.4202285918631176
2020-01-01 12:00:00.656,0.4214317227786107
2020-01-01 12:00:00.658,0.42263411237544546
2020-01-01 12:00:00.660,0.42383575853856087
2020-01-01 12:00:00.662,0.4250366591542035
2020-01-01 12:00:00.664,0.4262368121099315
2020-01-01 12:00:00.666,0.4274362152946181
2020-01-01 12:00:00.668,0.42863486659845546
2020-01-01 12:00:00.670,0.4298327639129583
2020-01-01 12:00:00.672,0.43102990513096767
2020-01-01 12:00:00.674,0.4322262881466546
2020-01-01 12:00:00.676,0.4334219108555239
2020-01-01 12:00:00.678,0.4346167711544177
2020-01-01 12:00:00.680,0.4358108669415194
2020-01-01 12:00:00.682,0.437004196116357
2020-01-01 12:00:00.684,0.43819675657980717
2020-01-01 12:00:00.686,0.4393885462340987
2020-01-01 12:00:00.688,0.44057956298281625
2020-01-01 12:00:00.690,0.44176980473090427
2020-01-01 12:00:00.692,0.4429592693846702
2020-01-01 12:00:00.694,0.44414795485178854
2020-01-01 12:00:00.696,0.44533585904130446
2020-01-01 12:00:00.698,0.4465229798636373
2020-01-01 12:00:00.700,0.44770931523058455
2020-01-01 12:00:00.702,0.4488948630553253
2020-01-01 12:00:00.704,0.45007962125242384
2020-01-01 12:00:00.706,0.4512635877378336
2020-01-01 12:00:00.708,0.4524467604289006
2020-01-01 12:00:00.710,0.45362913724436726
2020-01-01 12:00:00.712,0.45481071610437585
2020-01-01 12:00:00.714,0.4559914949304724
2020-01-01 12:00:00.716,0.4571714716456102
2020-01-01 12:00:00.718,0.4583506441741535
2020-01-01 12:00:00.720,0.45952901044188105
2020-01-01 12:00:00.722,0.46070656837599006
2020-01-01 12:00:00.724,0.46188331590509946
2020-01-01 12:00:00.726,0.46305925095925377
2020-01-01 12:00:00.728,0.4642343714699268
2020-01-01 12:00:00.730,0.4654086753700249
2020-01-01 12:00:00.732,0.46658216059389124
2020-01-01 12:00:00.734,0.4677548250773088
2020-01-01 12:00:00.736,0.4689266667575044
2020-01-01 12:00:00.738,0.4700976835731523
2020-01-01 12:00:00.740,0.47126787346437743
2020-01-01 12:00:00.742,0.4724372343727597
2020-01-01 12:00:00.744,0.473605764241337
2020-01-01 12:00:00.746,0.47477346101460904
2020-01-01 12:00:00.748,0.47594032263854125
2020-01-01 12:00:00.750,0.47710634706056776
2020-01-01 12:00:00.752,0.4782715322295957
2020-01-01 12:00:00.754,0.4794358760960082
2020-01-01 12:00:00.756,0.4805993766116685
2020-01-01 12:00:00.758,0.4817620317299234
2020-01-01 12:00:00.760,0.4829238394056065
2020-01-01 12:00:00.762,0.48408479759504225
2020-01-01 12:00:00.764,0.48524490425604944
2020-01-01 12:00:00.766,0.4864041573479446
2020-01-01 12:00:00.768,0.487562554831546
2020-01-01 12:00:00.770,0.4887200946691767
2020-01-01 12:00:00.772,0.4898767748246684
2020-01-01 12:00:00.774,0.4910325932633651
2020-01-01 12:00:00.776,0.49218754795212677
2020-01-01 12:00:00.778,0.4933416368593324
2020-01-01 12:00:00.780,0.4944948579548844
2020-01-01 12:00:00.782,0.4956472092102111
2020-01-01 12:00:00.784,0.4967986885982714
2020-01-01 12:00:00.786,0.49794929409355776
2020-01-01 12:00:00.788,0.4990990236720998
2020-01-01 12:00:00.790,0.5002478753114677
2020-01-01 12:00:00.792,0.5013958469907766
2020-01-01 12:00:00.794,0.5025429366906887
2020-01-01 12:00:00.796,0.5036891423934184
2020-01-01 12:00:00.798,0.5048344620827347
2020-01-01 12:00:00.800,0.5059788937439651
2020-01-01 12:00:00.802,0.5071224353639994
2020-01-01 12:00:00.804,0.5082650849312929
2020-01-01 12:00:00.806,0.50940684043587
2020-01-01 12:00:00.808,0.5105476998693281
2020-01-01 12:00:00.810,0.5116876612248403
2020-01-01 12:00:00.812,0.5128267224971601
2020-01-01 12:00:00.814,0.5139648816826237
2020-01-01 12:00:00.816,0.5151021367791546
2020-01-01 12:00:00.818,0.5162384857862663
2020-01-01 12:00:00.820,0.5173739267050663
2020-01-01 12:00:00.822,0.5185084575382594
2020-01-01 12:00:00.824,0.5196420762901514
2020-01-01 12:00:00.826,0.5207747809666523
2020-01-01 12:00:00.828,0.5219065695752804
2020-01-01 12:00:00.830,0.5230374401251648
2020-01-01 12:00:00.832,0.52416739062705
2020-01-01 12:00:00.834,0.5252964190932988
2020-01-01 12:00:00.836,0.5264245235378957
2020-01-01 12:00:00.838,0.5275517019764511
2020-01-01 12:00:00.840,0.5286779524262034
2020-01-01 12:00:00.842,0.5298032729060244
2020-01-01 12:00:00.844,0.530927661436421
2020-01-01 12:00:00.846,0.53205111603954
2020-01-01 12:00:00.848,0.5331736347391705
2020-01-01 12:00:00.850,0.5342952155607481
2020-01-01 12:00:00.852,0.5354158565313584
2020-01-01 12:00:00.854,0.53653555567974
2020-01-01 12:00:00.856,0.5376543110362885
2020-01-01 12:00:00.858,0.538772120633059
2020-01-01 12:00:00.860,0.5398889825037709
2020-01-01 12:00:00.862,0.5410048946838106
2020-01-01 12:00:00.864,0.5421198552102349
2020-01-01 12:00:00.866,0.5432338621217746
2020-01-01 12:00:00.868,0.5443469134588379
2020-01-01 12:00:00.870,0.545459007263514
2020-01-01 12:00:00.872,0.5465701415795765
2020-01-01 12:00:00.874,0.5476803144524869
2020-01-01 12:00:00.876,0.5487895239293975
2020-01-01 12:00:00.878,0.5498977680591556
2020-01-01 12:00:00.880,0.5510050448923064
2020-01-01 12:00:00.882,0.5521113524810969
2020-01-01 12:00:00.884,0.5532166888794788
2020-01-01 12:00:00.886,0.5543210521431123
2020-01-01 12:00:00.888,0.5554244403293692
2020-01-01 12:00:00.890,0.5565268514973367
2020-01-01 12:00:00.892,0.5576282837078206
2020-01-01 12:00:00.894,0.5587287350233486
2020-01-01 12:00:00.896,0.5598282035081742
2020-01-01 12:00:00.898,0.5609266872282792
2020-01-01 12:00:00.900,0.562024184251378
2020-01-01 12:00:00.902,0.5631206926469207
2020-01-01 12:00:00.904,0.5642162104860962
2020-01-01 12:00:00.906,0.5653107358418359
2020-01-01 12:00:00.908,0.5664042667888172
2020-01-01 12:00:00.910,0.5674968014034666
2020-01-01 12:00:00.912,0.5685883377639631
2020-01-01 12:00:00.914,0.5696788739502421
2020-01-01 12:00:00.916,0.5707684080439975
2020-01-01 12:00:00.918,0.5718569381286869
2020-01-01 12:00:00.920,0.5729444622895333
2020-01-01 12:00:00.922,0.5740309786135295
2020-01-01 12:00:00.924,0.5751164851894411
2020-01-01 12:00:00.926,0.5762009801078098
2020-01-01 12:00:00.928,0.577284461460957
2020-01-01 12:00:00.930,0.5783669273429868
2020-01-01 12:00:00.932,0.5794483758497897
2020-01-01 12:00:00.934,0.5805288050790459
2020-01-01 12:00:00.936,0.5816082131302284
2020-01-01 12:00:00.938,0.5826865981046064
2020-01-01 12:00:00.940,0.5837639581052491
2020-01-01 12:00:00.942,0.5848402912370283
2020-01-01 12:00:00.944,0.5859155956066224
2020-01-01 12:00:00.946,0.5869898693225193
2020-01-01 12:00:00.948,0.5880631104950199
2020-01-01 12:00:00.950,0.5891353172362414
2020-01-01 12:00:00.952,0.5902064876601205
2020-01-01 12:00:00.954,0.5912766198824171
2020-01-01 12:00:00.956,0.5923457120207171
2020-01-01 12:00:00.958,0.5934137621944359
2020-01-01 12:00:00.960,0.5944807685248221
2020-01-01 12:00:00.962,0.5955467291349603
2020-01-01 12:00:00.964,0.5966116421497744
2020-01-01 12:00:00.966,0.5976755056960312
2020-01-01 12:00:00.968,0.5987383179023437
2020-01-01 12:00:00.970,0.599800076899174
2020-01-01 12:00:00.972,0.6008607808188373
2020-01-01 12:00:00.974,0.6019204277955041
2020-01-01 12:00:00.976,0.6029790159652045
2020-01-01 12:00:00.978,0.604036543465831
2020-01-01 12:00:00.980,0.6050930084371421
2020-01-01 12:00:00.982,0.6061484090207649
2020-01-01 12:00:00.984,0.6072027433601991
2020-01-01 12:00:00.986,0.6082560096008199
2020-01-01 12:00:00.988,0.6093082058898815
2020-01-01 12:00:00.990,0.6103593303765199
2020-01-01 12:00:00.992,0.6114093812117567
2020-01-01 12:00:00.994,0.6124583565485018
2020-01-01 12:00:00.996,0.6135062545415574
2020-01-01 12:00:00.998,0.6145530733476204
2020-01-01 12:00:01.000,0.6155988111252864
2020-01-01 12:00:01.002,0.6166434660350522
2020-01-01 12:00:01.004,0.6176870362393195
2020-01-01 12:00:01.006,0.6187295199023983
2020-01-01 12:00:01.008,0.6197709151905099
2020-01-01 12:00:01.010,0.6208112202717896
2020-01-01 12:00:01.012,0.621850433316291
2020-01-01 12:00:01.014,0.6228885524959882
2020-01-01 12:00:01.016,0.6239255759847798
2020-01-01 12:00:01.018,0.6249615019584916
2020-01-01 12:00:01.020,0.6259963285948801
2020-01-01 12:00:01.022,0.6270300540736353
2020-01-01 12:00:01.024,0.6280626765763846
2020-01-01 12:00:01.026,0.6290941942866951
2020-01-01 12:00:01.028,0.630124605390078
2020-01-01 12:00:01.030,0.6311539080739903
2020-01-01 12:00:01.032,0.6321821005278391
2020-01-01 12:00:01.034,0.6332091809429846
2020-01-01 12:00:01.036,0.6342351475127429
2020-01-01 12:00:01.038,0.6352599984323894
2020-01-01 12:00:01.040,0.6362837318991624
2020-01-01 12:00:01.042,0.6373063461122652
2020-01-01 12:00:01.044,0.6383278392728703
2020-01-01 12:00:01.046,0.6393482095841222
2020-01-01 12:00:01.048,0.6403674552511405
2020-01-01 12:00:01.050,0.641385574481023
2020-01-01 12:00:01.052,0.6424025654828489
2020-01-01 12:00:01.054,0.6434184264676824
2020-01-01 12:00:01.056,0.6444331556485751
2020-01-01 12:00:01.058,0.6454467512405695
2020-01-01 12:00:01.060,0.6464592114607025
2020-01-01 12:00:01.062,0.6474705345280075
2020-01-01 12:00:01.064,0.648480718663519
2020-01-01 12:00:01.066,0.6494897620902743
2020-01-01 12:00:01.068,0.6504976630333176
2020-01-01 12:00:01.070,0.6515044197197026
2020-01-01 12:00:01.072,0.6525100303784961
2020-01-01 12:00:01.074,0.6535144932407804
2020-01-01 12:00:01.076,0.6545178065396572
2020-01-01 12:00:01.078,0.6555199685102501
2020-01-01 12:00:01.080,0.6565209773897079
2020-01-01 12:00:01.082,0.6575208314172081
2020-01-01 12:00:01.084,0.6585195288339593
2020-01-01 12:00:01.086,0.6595170678832046
2020-01-01 12:00:01.088,0.6605134468102252
2020-01-01 12:00:01.090,0.6615086638623422
2020-01-01 12:00:01.092,0.6625027172889214
2020-01-01 12:00:01.094,0.6634956053413748
2020-01-01 12:00:01.096,0.6644873262731646
2020-01-01 12:00:01.098,0.6654778783398063
2020-01-01 12:00:01.100,0.6664672597988708
2020-01-01 12:00:01.102,0.6674554689099887
2020-01-01 12:00:01.104,0.6684425039348527
2020-01-01 12:00:01.106,0.6694283631372208
2020-01-01 12:00:01.108,0.6704130447829192
2020-01-01 12:00:01.110,0.6713965471398455
2020-01-01 12:00:01.112,0.6723788684779719
2020-01-01 12:00:01.114,0.6733600070693477
2020-01-01 12:00:01.116,0.6743399611881034
2020-01-01 12:00:01.118,0.6753187291104523
2020-01-01 12:00:01.120,0.6762963091146945
2020-01-01 12:00:01.122,0.6772726994812199
2020-01-01 12:00:01.124,0.678247898492511
2020-01-01 12:00:01.126,0.6792219044331457
2020-01-01 12:00:01.128,0.6801947155898009
2020-01-01 12:00:01.130,0.6811663302512548
2020-01-01 12:00:01.132,0.6821367467083906
2020-01-01 12:00:01.134,0.6831059632541993
2020-01-01 12:00:01.136,0.6840739781837821
2020-01-01 12:00:01.138,0.6850407897943545
2020-01-01 12:00:01.140,0.686006396385248
2020-01-01 12:00:01.142,0.6869707962579145
2020-01-01 12:00:01.144,0.6879339877159282
2020-01-01 12:00:01.146,0.6888959690649892
2020-01-01 12:00:01.148,0.6898567386129256
2020-01-01 12:00:01.150,0.6908162946696981
2020-01-01 12:00:01.152,0.6917746355474012
2020-01-01 12:00:01.154,0.6927317595602671
2020-01-01 12:00:01.156,0.693687665024669
2020-01-01 12:00:01.158,0.694642350259123
2020-01-01 12:00:01.160,0.6955958135842919
2020-01-01 12:00:01.162,0.696548053322988
2020-01-01 12:00:01.164,0.6974990678001758
2020-01-01 12:00:01.166,0.698448855342975
2020-01-01 12:00:01.168,0.6993974142806637
2020-01-01 12:00:01.170,0.7003447429446812
2020-01-01 12:00:01.172,0.7012908396686307
2020-01-01 12:00:01.174,0.7022357027882827
2020-01-01 12:00:01.176,0.7031793306415778
2020-01-01 12:00:01.178,0.7041217215686287
2020-01-01 12:00:01.180,0.7050628739117248
2020-01-01 12:00:01.182,0.7060027860153338
2020-01-01 12:00:01.184,0.7069414562261053
2020-01-01 12:00:01.186,0.707878882892873
2020-01-01 12:00:01.188,0.7088150643666586
2020-01-01 12:00:01.190,0.7097499990006736
2020-01-01 12:00:01.192,0.7106836851503233
2020-01-01 12:00:01.194,0.7116161211732088
2020-01-01 12:00:01.196,0.7125473054291303
2020-01-01 12:00:01.198,0.7134772362800899
2020-01-01 12:00:01.200,0.7144059120902944
2020-01-01 12:00:01.202,0.7153333312261587
2020-01-01 12:00:01.204,0.7162594920563079
2020-01-01 12:00:01.206,0.7171843929515803
2020-01-01 12:00:01.208,0.7181080322850311
2020-01-01 12:00:01.210,0.7190304084319341
2020-01-01 12:00:01.212,0.7199515197697854
2020-01-01 12:00:01.214,0.720871364678306
2020-01-01 12:00:01.216,0.7217899415394444
2020-01-01 12:00:01.218,0.7227072487373796
2020-01-01 12:00:01.220,0.7236232846585242
2020-01-01 12:00:01.222,0.7245380476915272
2020-01-01 12:00:01.224,0.7254515362272762
2020-01-01 12:00:01.226,0.7263637486589012
2020-01-01 12:00:01.228,0.7272746833817763
2020-01-01 12:00:01.230,0.7281843387935238
2020-01-01 12:00:01.232,0.7290927132940163
2020-01-01 12:00:01.234,0.7299998052853791
2020-01-01 12:00:01.236,0.7309056131719937
2020-01-01 12:00:01.238,0.7318101353605007
2020-01-01 12:00:01.240,0.7327133702598019
2020-01-01 12:00:01.242,0.7336153162810639
2020-01-01 12:00:01.244,0.7345159718377203
2020-01-01 12:00:01.246,0.7354153353454747
2020-01-01 12:00:01.248,0.736313405222303
2020-01-01 12:00:01.250,0.7372101798884576
2020-01-01 12:00:01.252,0.7381056577664689
2020-01-01 12:00:01.254,0.7389998372811477
2020-01-01 12:00:01.256,0.7398927168595895
2020-01-01 12:00:01.258,0.7407842949311763
2020-01-01 12:00:01.260,0.7416745699275795
2020-01-01 12:00:01.262,0.7425635402827624
2020-01-01 12:00:01.264,0.7434512044329833
2020-01-01 12:00:01.266,0.7443375608167986
2020-01-01 12:00:01.268,0.7452226078750646
2020-01-01 12:00:01.270,0.7461063440509409
2020-01-01 12:00:01.272,0.7469887677898934
2020-01-01 12:00:01.274,0.7478698775396961
2020-01-01 12:00:01.276,0.7487496717504347
2020-01-01 12:00:01.278,0.7496281488745089
2020-01-01 12:00:01.280,0.750505307366635
2020-01-01 12:00:01.282,0.7513811456838493
2020-01-01 12:00:01.284,0.7522556622855099
2020-01-01 12:00:01.286,0.7531288556333002
2020-01-01 12:00:01.288,0.7540007241912311
2020-01-01 12:00:01.290,0.754871266425644
2020-01-01 12:00:01.292,0.755740480805213
2020-01-01 12:00:01.294,0.7566083658009484
2020-01-01 12:00:01.296,0.7574749198861987
2020-01-01 12:00:01.298,0.7583401415366537
2020-01-01 12:00:01.300,0.7592040292303469
2020-01-01 12:00:01.302,0.7600665814476584
2020-01-01 12:00:01.304,0.7609277966713172
2020-01-01 12:00:01.306,0.7617876733864043
2020-01-01 12:00:01.308,0.7626462100803554
2020-01-01 12:00:01.310,0.7635034052429632
2020-01-01 12:00:01.312,0.76435925736638
2020-01-01 12:00:01.314,0.765213764945121
2020-01-01 12:00:01.316,0.7660669264760662
2020-01-01 12:00:01.318,0.7669187404584634
2020-01-01 12:00:01.320,0.767769205393931
2020-01-01 12:00:01.322,0.7686183197864601
2020-01-01 12:00:01.324,0.7694660821424177
2020-01-01 12:00:01.326,0.7703124909705493
2020-01-01 12:00:01.328,0.771157544781981
2020-01-01 12:00:01.330,0.7720012420902223
2020-01-01 12:00:01.332,0.7728435814111692
2020-01-01 12:00:01.334,0.7736845612631065
2020-01-01 12:00:01.336,0.7745241801667099
2020-01-01 12:00:01.338,0.7753624366450497
2020-01-01 12:00:01.340,0.7761993292235924
2020-01-01 12:00:01.342,0.7770348564302035
2020-01-01 12:00:01.344,0.7778690167951507
2020-01-01 12:00:01.346,0.7787018088511057
2020-01-01 12:00:01.348,0.7795332311331474
2020-01-01 12:00:01.350,0.780363282178764
2020-01-01 12:00:01.352,0.7811919605278557
2020-01-01 12:00:01.354,0.7820192647227375
2020-01-01 12:00:01.356,0.7828451933081415
2020-01-01 12:00:01.358,0.7836697448312198
2020-01-01 12:00:01.360,0.7844929178415464
2020-01-01 12:00:01.362,0.7853147108911206
2020-01-01 12:00:01.364,0.7861351225343687
2020-01-01 12:00:01.366,0.7869541513281474
2020-01-01 12:00:01.368,0.7877717958317456
2020-01-01 12:00:01.370,0.7885880546068874
2020-01-01 12:00:01.372,0.7894029262177342
2020-01-01 12:00:01.374,0.7902164092308878
2020-01-01 12:00:01.376,0.7910285022153923
2020-01-01 12:00:01.378,0.7918392037427374
2020-01-01 12:00:01.380,0.79264851238686
2020-01-01 12:00:01.382,0.7934564267241472
2020-01-01 12:00:01.384,0.7942629453334389
2020-01-01 12:00:01.386,0.7950680667960301
2020-01-01 12:00:01.388,0.7958717896956736
2020-01-01 12:00:01.390,0.796674112618582
2020-01-01 12:00:01.392,0.7974750341534307
2020-01-01 12:00:01.394,0.7982745528913603
2020-01-01 12:00:01.396,0.7990726674259789
2020-01-01 12:00:01.398,0.7998693763533646
2020-01-01 12:00:01.400,0.8006646782720683
2020-01-01 12:00:01.402,0.8014585717831155
2020-01-01 12:00:01.404,0.8022510554900093
2020-01-01 12:00:01.406,0.803042127998733
2020-01-01 12:00:01.408,0.8038317879177519
2020-01-01 12:00:01.410,0.8046200338580162
2020-01-01 12:00:01.412,0.8054068644329634
2020-01-01 12:00:01.414,0.8061922782585207
2020-01-01 12:00:01.416,0.8069762739531077
2020-01-01 12:00:01.418,0.8077588501376378
2020-01-01 12:00:01.420,0.8085400054355223
2020-01-01 12:00:01.422,0.8093197384726712
2020-01-01 12:00:01.424,0.8100980478774968
2020-01-01 12:00:01.426,0.8108749322809153
2020-01-01 12:00:01.428,0.8116503903163499
2020-01-01 12:00:01.430,0.8124244206197323
2020-01-01 12:00:01.432,0.8131970218295063
2020-01-01 12:00:01.434,0.813968192586629
2020-01-01 12:00:01.436,0.8147379315345742
2020-01-01 12:00:01.438,0.8155062373193339
2020-01-01 12:00:01.440,0.8162731085894214
2020-01-01 12:00:01.442,0.8170385439958733
2020-01-01 12:00:01.444,0.8178025421922517
2020-01-01 12:00:01.446,0.8185651018346474
2020-01-01 12:00:01.448,0.819326221581681
2020-01-01 12:00:01.450,0.8200859000945064
2020-01-01 12:00:01.452,0.8208441360368127
2020-01-01 12:00:01.454,0.8216009280748264
2020-01-01 12:00:01.456,0.8223562748773138
2020-01-01 12:00:01.458,0.8231101751155836
2020-01-01 12:00:01.460,0.823862627463489
2020-01-01 12:00:01.462,0.8246136305974303
2020-01-01 12:00:01.464,0.8253631831963568
2020-01-01 12:00:01.466,0.8261112839417695
2020-01-01 12:00:01.468,0.8268579315177231
2020-01-01 12:00:01.470,0.8276031246108287
2020-01-01 12:00:01.472,0.8283468619102559
2020-01-01 12:00:01.474,0.8290891421077349
2020-01-01 12:00:01.476,0.8298299638975593
2020-01-01 12:00:01.478,0.8305693259765878
2020-01-01 12:00:01.480,0.8313072270442471
2020-01-01 12:00:01.482,0.8320436658025336
2020-01-01 12:00:01.484,0.8327786409560164
2020-01-01 12:00:01.486,0.8335121512118386
2020-01-01 12:00:01.488,0.8342441952797205
2020-01-01 12:00:01.490,0.8349747718719613
2020-01-01 12:00:01.492,0.835703879703442
2020-01-01 12:00:01.494,0.8364315174916264
2020-01-01 12:00:01.496,0.837157683956565
2020-01-01 12:00:01.498,0.8378823778208959
2020-01-01 12:00:01.500,0.8386055978098478
2020-01-01 12:00:01.502,0.839327342651242
2020-01-01 12:00:01.504,0.8400476110754946
2020-01-01 12:00:01.506,0.8407664018156189
2020-01-01 12:00:01.508,0.8414837136072274
2020-01-01 12:00:01.510,0.8421995451885342
2020-01-01 12:00:01.512,0.842913895300357
2020-01-01 12:00:01.514,0.8436267626861198
2020-01-01 12:00:01.516,0.8443381460918543
2020-01-01 12:00:01.518,0.8450480442662033
2020-01-01 12:00:01.520,0.8457564559604216
2020-01-01 12:00:01.522,0.8464633799283788
2020-01-01 12:00:01.524,0.847168814926562
2020-01-01 12:00:01.526,0.8478727597140768
2020-01-01 12:00:01.528,0.8485752130526509
2020-01-01 12:00:01.530,0.8492761737066348
2020-01-01 12:00:01.532,0.8499756404430048
2020-01-01 12:00:01.534,0.8506736120313658
2020-01-01 12:00:01.536,0.8513700872439518
2020-01-01 12:00:01.538,0.8520650648556297
2020-01-01 12:00:01.540,0.8527585436439005
2020-01-01 12:00:01.542,0.8534505223889013
2020-01-01 12:00:01.544,0.8541409998734086
2020-01-01 12:00:01.546,0.8548299748828391
2020-01-01 12:00:01.548,0.8555174462052528
2020-01-01 12:00:01.550,0.8562034126313546
2020-01-01 12:00:01.552,0.8568878729544964
2020-01-01 12:00:01.554,0.8575708259706798
2020-01-01 12:00:01.556,0.8582522704785573
2020-01-01 12:00:01.558,0.8589322052794357
2020-01-01 12:00:01.560,0.8596106291772767
2020-01-01 12:00:01.562,0.8602875409787001
2020-01-01 12:00:01.564,0.8609629394929856
2020-01-01 12:00:01.566,0.8616368235320745
2020-01-01 12:00:01.568,0.8623091919105728
2020-01-01 12:00:01.570,0.8629800434457517
2020-01-01 12:00:01.572,0.8636493769575515
2020-01-01 12:00:01.574,0.8643171912685823
2020-01-01 12:00:01.576,0.8649834852041265
2020-01-01 12:00:01.578,0.865648257592141
2020-01-01 12:00:01.580,0.8663115072632595
2020-01-01 12:00:01.582,0.8669732330507935
2020-01-01 12:00:01.584,0.8676334337907361
2020-01-01 12:00:01.586,0.868292108321762
2020-01-01 12:00:01.588,0.8689492554852312
2020-01-01 12:00:01.590,0.8696048741251902
2020-01-01 12:00:01.592,0.8702589630883744
2020-01-01 12:00:01.594,0.8709115212242098
2020-01-01 12:00:01.596,0.8715625473848153
2020-01-01 12:00:01.598,0.8722120404250044
2020-01-01 12:00:01.600,0.8728599992022881
2020-01-01 12:00:01.602,0.8735064225768753
2020-01-01 12:00:01.604,0.8741513094116764
2020-01-01 12:00:01.606,0.8747946585723044
2020-01-01 12:00:01.608,0.8754364689270773
2020-01-01 12:00:01.610,0.8760767393470197
2020-01-01 12:00:01.612,0.8767154687058651
2020-01-01 12:00:01.614,0.8773526558800583
2020-01-01 12:00:01.616,0.8779882997487559
2020-01-01 12:00:01.618,0.87862239919383
2020-01-01 12:00:01.620,0.8792549530998692
2020-01-01 12:00:01.622,0.8798859603541807
2020-01-01 12:00:01.624,0.8805154198467925
2020-01-01 12:00:01.626,0.8811433304704551
2020-01-01 12:00:01.628,0.8817696911206434
2020-01-01 12:00:01.630,0.8823945006955591
2020-01-01 12:00:01.632,0.8830177580961318
2020-01-01 12:00:01.634,0.8836394622260223
2020-01-01 12:00:01.636,0.8842596119916226
2020-01-01 12:00:01.638,0.8848782063020598
2020-01-01 12:00:01.640,0.8854952440691967
2020-01-01 12:00:01.642,0.886110724207634
2020-01-01 12:00:01.644,0.8867246456347129
2020-01-01 12:00:01.646,0.8873370072705159
2020-01-01 12:00:01.648,0.8879478080378693
2020-01-01 12:00:01.650,0.8885570468623456
2020-01-01 12:00:01.652,0.889164722672264
2020-01-01 12:00:01.654,0.8897708343986939
2020-01-01 12:00:01.656,0.8903753809754553
2020-01-01 12:00:01.658,0.8909783613391219
2020-01-01 12:00:01.660,0.8915797744290223
2020-01-01 12:00:01.662,0.8921796191872418
2020-01-01 12:00:01.664,0.8927778945586248
2020-01-01 12:00:01.666,0.893374599490776
2020-01-01 12:00:01.668,0.8939697329340629
2020-01-01 12:00:01.670,0.894563293841617
2020-01-01 12:00:01.672,0.8951552811693364
2020-01-01 12:00:01.674,0.8957456938758867
2020-01-01 12:00:01.676,0.8963345309227035
2020-01-01 12:00:01.678,0.8969217912739944
2020-01-01 12:00:01.680,0.8975074738967401
2020-01-01 12:00:01.682,0.8980915777606966
2020-01-01 12:00:01.684,0.8986741018383972
2020-01-01 12:00:01.686,0.8992550451051542
2020-01-01 12:00:01.688,0.8998344065390601
2020-01-01 12:00:01.690,0.9004121851209906
2020-01-01 12:00:01.692,0.9009883798346054
2020-01-01 12:00:01.694,0.9015629896663502
2020-01-01 12:00:01.696,0.9021360136054587
2020-01-01 12:00:01.698,0.9027074506439542
2020-01-01 12:00:01.700,0.9032772997766516
2020-01-01 12:00:01.702,0.9038455600011588
2020-01-01 12:00:01.704,0.9044122303178787
2020-01-01 12:00:01.706,0.904977309730011
2020-01-01 12:00:01.708,0.9055407972435539
2020-01-01 12:00:01.710,0.9061026918673059
2020-01-01 12:00:01.712,0.9066629926128671
2020-01-01 12:00:01.714,0.9072216984946416
2020-01-01 12:00:01.716,0.9077788085298392
2020-01-01 12:00:01.718,0.9083343217384761
2020-01-01 12:00:01.720,0.9088882371433782
2020-01-01 12:00:01.722,0.9094405537701815
2020-01-01 12:00:01.724,0.9099912706473346
2020-01-01 12:00:01.726,0.9105403868061002
2020-01-01 12:00:01.728,0.9110879012805561
2020-01-01 12:00:01.730,0.9116338131075985
2020-01-01 12:00:01.732,0.912178121326942
2020-01-01 12:00:01.734,0.9127208249811224
2020-01-01 12:00:01.736,0.9132619231154978
2020-01-01 12:00:01.738,0.9138014147782506
2020-01-01 12:00:01.740,0.914339299020389
2020-01-01 12:00:01.742,0.9148755748957489
2020-01-01 12:00:01.744,0.9154102414609951
2020-01-01 12:00:01.746,0.9159432977756236
2020-01-01 12:00:01.748,0.9164747429019624
2020-01-01 12:00:01.750,0.9170045759051743
2020-01-01 12:00:01.752,0.9175327958532573
2020-01-01 12:00:01.754,0.9180594018170473
2020-01-01 12:00:01.756,0.9185843928702191
2020-01-01 12:00:01.758,0.9191077680892882
2020-01-01 12:00:01.760,0.9196295265536123
2020-01-01 12:00:01.762,0.9201496673453934
2020-01-01 12:00:01.764,0.9206681895496786
2020-01-01 12:00:01.766,0.9211850922543625
2020-01-01 12:00:01.768,0.9217003745501885
2020-01-01 12:00:01.770,0.9222140355307502
2020-01-01 12:00:01.772,0.9227260742924933
2020-01-01 12:00:01.774,0.9232364899347169
2020-01-01 12:00:01.776,0.9237452815595755
2020-01-01 12:00:01.778,0.9242524482720799
2020-01-01 12:00:01.780,0.9247579891800997
2020-01-01 12:00:01.782,0.9252619033943642
2020-01-01 12:00:01.784,0.9257641900284638
2020-01-01 12:00:01.786,0.9262648481988525
2020-01-01 12:00:01.788,0.9267638770248482
2020-01-01 12:00:01.790,0.9272612756286354
2020-01-01 12:00:01.792,0.9277570431352661
2020-01-01 12:00:01.794,0.9282511786726612
2020-01-01 12:00:01.796,0.9287436813716127
2020-01-01 12:00:01.798,0.9292345503657845
2020-01-01 12:00:01.800,0.9297237847917148
2020-01-01 12:00:01.802,0.9302113837888164
2020-01-01 12:00:01.804,0.9306973464993793
2020-01-01 12:00:01.806,0.9311816720685718
2020-01-01 12:00:01.808,0.9316643596444419
2020-01-01 12:00:01.810,0.932145408377919
2020-01-01 12:00:01.812,0.9326248174228152
2020-01-01 12:00:01.814,0.933102585935827
2020-01-01 12:00:01.816,0.9335787130765365
2020-01-01 12:00:01.818,0.9340531980074134
2020-01-01 12:00:01.820,0.9345260398938156
2020-01-01 12:00:01.822,0.9349972379039916
2020-01-01 12:00:01.824,0.9354667912090815
2020-01-01 12:00:01.826,0.9359346989831187
2020-01-01 12:00:01.828,0.9364009604030304
2020-01-01 12:00:01.830,0.9368655746486407
2020-01-01 12:00:01.832,0.9373285409026709
2020-01-01 12:00:01.834,0.9377898583507408
2020-01-01 12:00:01.836,0.9382495261813711
2020-01-01 12:00:01.838,0.9387075435859839
2020-01-01 12:00:01.840,0.9391639097589044
2020-01-01 12:00:01.842,0.9396186238973628
2020-01-01 12:00:01.844,0.940071685201495
2020-01-01 12:00:01.846,0.9405230928743443
2020-01-01 12:00:01.848,0.940972846121863
2020-01-01 12:00:01.850,0.9414209441529136
2020-01-01 12:00:01.852,0.9418673861792699
2020-01-01 12:00:01.854,0.942312171415619
2020-01-01 12:00:01.856,0.9427552990795623
2020-01-01 12:00:01.858,0.9431967683916171
2020-01-01 12:00:01.860,0.9436365785752174
2020-01-01 12:00:01.862,0.9440747288567162
2020-01-01 12:00:01.864,0.9445112184653859
2020-01-01 12:00:01.866,0.9449460466334203
2020-01-01 12:00:01.868,0.9453792125959359
2020-01-01 12:00:01.870,0.9458107155909727
2020-01-01 12:00:01.872,0.9462405548594965
2020-01-01 12:00:01.874,0.9466687296453992
2020-01-01 12:00:01.876,0.9470952391955008
2020-01-01 12:00:01.878,0.9475200827595504
2020-01-01 12:00:01.880,0.9479432595902277
2020-01-01 12:00:01.882,0.9483647689431447
2020-01-01 12:00:01.884,0.9487846100768458
2020-01-01 12:00:01.886,0.9492027822528104
2020-01-01 12:00:01.888,0.9496192847354535
2020-01-01 12:00:01.890,0.9500341167921272
2020-01-01 12:00:01.892,0.9504472776931222
2020-01-01 12:00:01.894,0.9508587667116682
2020-01-01 12:00:01.896,0.9512685831239367
2020-01-01 12:00:01.898,0.9516767262090406
2020-01-01 12:00:01.900,0.9520831952490366
2020-01-01 12:00:01.902,0.9524879895289263
2020-01-01 12:00:01.904,0.952891108336657
2020-01-01 12:00:01.906,0.9532925509631234
2020-01-01 12:00:01.908,0.9536923167021686
2020-01-01 12:00:01.910,0.9540904048505854
2020-01-01 12:00:01.912,0.9544868147081176
2020-01-01 12:00:01.914,0.9548815455774612
2020-01-01 12:00:01.916,0.9552745967642657
2020-01-01 12:00:01.918,0.9556659675771353
2020-01-01 12:00:01.920,0.9560556573276295
2020-01-01 12:00:01.922,0.9564436653302658
2020-01-01 12:00:01.924,0.9568299909025192
2020-01-01 12:00:01.926,0.9572146333648244
2020-01-01 12:00:01.928,0.9575975920405769
2020-01-01 12:00:01.930,0.9579788662561339
2020-01-01 12:00:01.932,0.958358455340816
2020-01-01 12:00:01.934,0.9587363586269075
2020-01-01 12:00:01.936,0.9591125754496583
2020-01-01 12:00:01.938,0.9594871051472852
2020-01-01 12:00:01.940,0.9598599470609722
2020-01-01 12:00:01.942,0.9602311005348727
2020-01-01 12:00:01.944,0.9606005649161097
2020-01-01 12:00:01.946,0.9609683395547775
2020-01-01 12:00:01.948,0.9613344238039431
2020-01-01 12:00:01.950,0.9616988170196465
2020-01-01 12:00:01.952,0.9620615185609027
2020-01-01 12:00:01.954,0.9624225277897022
2020-01-01 12:00:01.956,0.9627818440710122
2020-01-01 12:00:01.958,0.9631394667727784
2020-01-01 12:00:01.960,0.963495395265925
2020-01-01 12:00:01.962,0.9638496289243569
2020-01-01 12:00:01.964,0.96420216712496
2020-01-01 12:00:01.966,0.9645530092476026
2020-01-01 12:00:01.968,0.9649021546751365
2020-01-01 12:00:01.970,0.9652496027933983
2020-01-01 12:00:01.972,0.9655953529912099
2020-01-01 12:00:01.974,0.9659394046603802
2020-01-01 12:00:01.976,0.9662817571957055
2020-01-01 12:00:01.978,0.9666224099949716
2020-01-01 12:00:01.980,0.9669613624589536
2020-01-01 12:00:01.982,0.967298613991418
2020-01-01 12:00:01.984,0.967634163999123
2020-01-01 12:00:01.986,0.96796801189182
2020-01-01 12:00:01.988,0.9683001570822547
2020-01-01 12:00:01.990,0.9686305989861675
2020-01-01 12:00:01.992,0.9689593370222954
2020-01-01 12:00:01.994,0.9692863706123722
2020-01-01 12:00:01.996,0.9696116991811303
2020-01-01 12:00:01.998,0.9699353221563011
2020-01-01 12:00:02.000,0.9702572389686159
2020-01-01 12:00:02.002,0.970577449051808
2020-01-01 12:00:02.004,0.9708959518426121
2020-01-01 12:00:02.006,0.9712127467807667
2020-01-01 12:00:02.008,0.9715278333090144
2020-01-01 12:00:02.010,0.9718412108731025
2020-01-01 12:00:02.012,0.972152878921785
2020-01-01 12:00:02.014,0.9724628369068229
2020-01-01 12:00:02.016,0.972771084282985
2020-01-01 12:00:02.018,0.9730776205080495
2020-01-01 12:00:02.020,0.9733824450428044
2020-01-01 12:00:02.022,0.9736855573510486
2020-01-01 12:00:02.024,0.9739869568995931
2020-01-01 12:00:02.026,0.9742866431582616
2020-01-01 12:00:02.028,0.9745846155998915
2020-01-01 12:00:02.030,0.974880873700335
2020-01-01 12:00:02.032,0.9751754169384599
2020-01-01 12:00:02.034,0.9754682447961505
2020-01-01 12:00:02.036,0.9757593567583083
2020-01-01 12:00:02.038,0.9760487523128536
2020-01-01 12:00:02.040,0.9763364309507256
2020-01-01 12:00:02.042,0.9766223921658838
2020-01-01 12:00:02.044,0.9769066354553086
2020-01-01 12:00:02.046,0.9771891603190025
2020-01-01 12:00:02.048,0.9774699662599907
2020-01-01 12:00:02.050,0.9777490527843219
2020-01-01 12:00:02.052,0.9780264194010696
2020-01-01 12:00:02.054,0.9783020656223325
2020-01-01 12:00:02.056,0.9785759909632358
2020-01-01 12:00:02.058,0.9788481949419314
2020-01-01 12:00:02.060,0.9791186770795998
2020-01-01 12:00:02.062,0.9793874369004495
2020-01-01 12:00:02.064,0.9796544739317193
2020-01-01 12:00:02.066,0.9799197877036783
2020-01-01 12:00:02.068,0.9801833777496266
2020-01-01 12:00:02.070,0.9804452436058967
2020-01-01 12:00:02.072,0.9807053848118541
2020-01-01 12:00:02.074,0.9809638009098978
2020-01-01 12:00:02.076,0.9812204914454614
2020-01-01 12:00:02.078,0.9814754559670141
2020-01-01 12:00:02.080,0.9817286940260609
2020-01-01 12:00:02.082,0.9819802051771439
2020-01-01 12:00:02.084,0.982229988977843
2020-01-01 12:00:02.086,0.9824780449887763
2020-01-01 12:00:02.088,0.9827243727736016
2020-01-01 12:00:02.090,0.9829689718990163
2020-01-01 12:00:02.092,0.9832118419347587
2020-01-01 12:00:02.094,0.983452982453609
2020-01-01 12:00:02.096,0.9836923930313893
2020-01-01 12:00:02.098,0.9839300732469649
2020-01-01 12:00:02.100,0.9841660226822448
2020-01-01 12:00:02.102,0.9844002409221827
2020-01-01 12:00:02.104,0.9846327275547774
2020-01-01 12:00:02.106,0.9848634821710737
2020-01-01 12:00:02.108,0.9850925043651633
2020-01-01 12:00:02.110,0.9853197937341849
2020-01-01 12:00:02.112,0.9855453498783258
2020-01-01 12:00:02.114,0.9857691724008218
2020-01-01 12:00:02.116,0.9859912609079584
2020-01-01 12:00:02.118,0.9862116150090712
2020-01-01 12:00:02.120,0.9864302343165466
2020-01-01 12:00:02.122,0.9866471184458229
2020-01-01 12:00:02.124,0.9868622670153905
2020-01-01 12:00:02.126,0.9870756796467927
2020-01-01 12:00:02.128,0.9872873559646262
2020-01-01 12:00:02.130,0.9874972955965426
2020-01-01 12:00:02.132,0.9877054981732477
2020-01-01 12:00:02.134,0.9879119633285032
2020-01-01 12:00:02.136,0.988116690699127
2020-01-01 12:00:02.138,0.9883196799249938
2020-01-01 12:00:02.140,0.9885209306490359
2020-01-01 12:00:02.142,0.9887204425172434
2020-01-01 12:00:02.144,0.9889182151786655
2020-01-01 12:00:02.146,0.9891142482854105
2020-01-01 12:00:02.148,0.9893085414926468
2020-01-01 12:00:02.150,0.9895010944586032
2020-01-01 12:00:02.152,0.98969190684457
2020-01-01 12:00:02.154,0.9898809783148987
2020-01-01 12:00:02.156,0.9900683085370039
2020-01-01 12:00:02.158,0.9902538971813624
2020-01-01 12:00:02.160,0.990437743921515
2020-01-01 12:00:02.162,0.9906198484340664
2020-01-01 12:00:02.164,0.990800210398686
2020-01-01 12:00:02.166,0.9909788294981086
2020-01-01 12:00:02.168,0.9911557054181342
2020-01-01 12:00:02.170,0.9913308378476301
2020-01-01 12:00:02.172,0.9915042264785296
2020-01-01 12:00:02.174,0.9916758710058339
2020-01-01 12:00:02.176,0.991845771127612
2020-01-01 12:00:02.178,0.9920139265450012
2020-01-01 12:00:02.180,0.9921803369622083
2020-01-01 12:00:02.182,0.9923450020865093
2020-01-01 12:00:02.184,0.9925079216282504
2020-01-01 12:00:02.186,0.9926690953008482
2020-01-01 12:00:02.188,0.9928285228207905
2020-01-01 12:00:02.190,0.9929862039076365
2020-01-01 12:00:02.192,0.9931421382840178
2020-01-01 12:00:02.194,0.9932963256756382
2020-01-01 12:00:02.196,0.9934487658112747
2020-01-01 12:00:02.198,0.9935994584227779
2020-01-01 12:00:02.200,0.9937484032450721
2020-01-01 12:00:02.202,0.9938956000161561
2020-01-01 12:00:02.204,0.994041048477104
2020-01-01 12:00:02.206,0.9941847483720646
2020-01-01 12:00:02.208,0.9943266994482632
2020-01-01 12:00:02.210,0.9944669014560009
2020-01-01 12:00:02.212,0.9946053541486557
2020-01-01 12:00:02.214,0.9947420572826825
2020-01-01 12:00:02.216,0.9948770106176141
2020-01-01 12:00:02.218,0.9950102139160609
2020-01-01 12:00:02.220,0.9951416669437122
2020-01-01 12:00:02.222,0.9952713694693355
2020-01-01 12:00:02.224,0.9953993212647779
2020-01-01 12:00:02.226,0.9955255221049661
2020-01-01 12:00:02.228,0.9956499717679067
2020-01-01 12:00:02.230,0.9957726700346868
2020-01-01 12:00:02.232,0.9958936166894744
2020-01-01 12:00:02.234,0.9960128115195181
2020-01-01 12:00:02.236,0.996130254315149
2020-01-01 12:00:02.238,0.9962459448697791
2020-01-01 12:00:02.240,0.9963598829799035
2020-01-01 12:00:02.242,0.9964720684450994
2020-01-01 12:00:02.244,0.9965825010680271
2020-01-01 12:00:02.246,0.9966911806544306
2020-01-01 12:00:02.248,0.9967981070131371
2020-01-01 12:00:02.250,0.9969032799560579
2020-01-01 12:00:02.252,0.9970066992981889
2020-01-01 12:00:02.254,0.9971083648576105
2020-01-01 12:00:02.256,0.9972082764554879
2020-01-01 12:00:02.258,0.9973064339160721
2020-01-01 12:00:02.260,0.9974028370666992
2020-01-01 12:00:02.262,0.9974974857377914
2020-01-01 12:00:02.264,0.9975903797628572
2020-01-01 12:00:02.266,0.9976815189784917
2020-01-01 12:00:02.268,0.9977709032243764
2020-01-01 12:00:02.270,0.9978585323432803
2020-01-01 12:00:02.272,0.9979444061810594
2020-01-01 12:00:02.274,0.9980285245866575
2020-01-01 12:00:02.276,0.9981108874121064
2020-01-01 12:00:02.278,0.998191494512526
2020-01-01 12:00:02.280,0.9982703457461243
2020-01-01 12:00:02.282,0.9983474409741984
2020-01-01 12:00:02.284,0.9984227800611338
2020-01-01 12:00:02.286,0.9984963628744058
2020-01-01 12:00:02.288,0.9985681892845784
2020-01-01 12:00:02.290,0.9986382591653057
2020-01-01 12:00:02.292,0.9987065723933313
2020-01-01 12:00:02.294,0.9987731288484889
2020-01-01 12:00:02.296,0.9988379284137026
2020-01-01 12:00:02.298,0.9989009709749868
2020-01-01 12:00:02.300,0.9989622564214466
2020-01-01 12:00:02.302,0.999021784645278
2020-01-01 12:00:02.304,0.999079555541768
2020-01-01 12:00:02.306,0.9991355690092947
2020-01-01 12:00:02.308,0.9991898249493278
2020-01-01 12:00:02.310,0.9992423232664286
2020-01-01 12:00:02.312,0.9992930638682498
2020-01-01 12:00:02.314,0.9993420466655364
2020-01-01 12:00:02.316,0.9993892715721253
2020-01-01 12:00:02.318,0.9994347385049456
2020-01-01 12:00:02.320,0.9994784473840187
2020-01-01 12:00:02.322,0.9995203981324587
2020-01-01 12:00:02.324,0.9995605906764722
2020-01-01 12:00:02.326,0.9995990249453585
2020-01-01 12:00:02.328,0.9996357008715099
2020-01-01 12:00:02.330,0.9996706183904118
2020-01-01 12:00:02.332,0.9997037774406424
2020-01-01 12:00:02.334,0.9997351779638736
2020-01-01 12:00:02.336,0.9997648199048701
2020-01-01 12:00:02.338,0.9997927032114905
2020-01-01 12:00:02.340,0.9998188278346866
2020-01-01 12:00:02.342,0.9998431937285039
2020-01-01 12:00:02.344,0.9998658008500819
2020-01-01 12:00:02.346,0.9998866491596533
2020-01-01 12:00:02.348,0.999905738620545
2020-01-01 12:00:02.350,0.9999230691991776
2020-01-01 12:00:02.352,0.9999386408650661
2020-01-01 12:00:02.354,0.9999524535908189
2020-01-01 12:00:02.356,0.9999645073521388
2020-01-01 12:00:02.358,0.9999748021278229
2020-01-01 12:00:02.360,0.9999833378997618
2020-01-01 12:00:02.362,0.999990114652941
2020-01-01 12:00:02.364,0.9999951323754396
2020-01-01 12:00:02.366,0.9999983910584314
2020-01-01 12:00:02.368,0.9999998906961841
2020-01-01 12:00:02.370,0.9999996312860598
2020-01-01 12:00:02.372,0.9999976128285148
2020-01-01 12:00:02.374,0.9999938353270997
2020-01-01 12:00:02.376,0.9999882987884593
2020-01-01 12:00:02.378,0.9999810032223326
2020-01-01 12:00:02.380,0.9999719486415529
2020-01-01 12:00:02.382,0.9999611350620476
2020-01-01 12:00:02.384,0.9999485625028385
2020-01-01 12:00:02.386,0.999934230986041
2020-01-01 12:00:02.388,0.999918140536865
2020-01-01 12:00:02.390,0.9999002911836146
2020-01-01 12:00:02.392,0.9998806829576874
2020-01-01 12:00:02.394,0.9998593158935755
2020-01-01 12:00:02.396,0.9998361900288644
2020-01-01 12:00:02.398,0.9998113054042336
2020-01-01 12:00:02.400,0.9997846620634563
2020-01-01 12:00:02.402,0.9997562600533997
2020-01-01 12:00:02.404,0.999726099424024
2020-01-01 12:00:02.406,0.9996941802283833
2020-01-01 12:00:02.408,0.9996605025226251
2020-01-01 12:00:02.410,0.9996250663659899
2020-01-01 12:00:02.412,0.9995878718208118
2020-01-01 12:00:02.414,0.9995489189525176
2020-01-01 12:00:02.416,0.9995082078296275
2020-01-01 12:00:02.418,0.9994657385237542
2020-01-01 12:00:02.420,0.9994215111096032
2020-01-01 12:00:02.422,0.9993755256649727
2020-01-01 12:00:02.424,0.9993277822707533
2020-01-01 12:00:02.426,0.9992782810109279
2020-01-01 12:00:02.428,0.9992270219725716
2020-01-01 12:00:02.430,0.9991740052458516
2020-01-01 12:00:02.432,0.9991192309240268
2020-01-01 12:00:02.434,0.9990626991034479
2020-01-01 12:00:02.436,0.999004409883557
2020-01-01 12:00:02.438,0.9989443633668877
2020-01-01 12:00:02.440,0.9988825596590648
2020-01-01 12:00:02.442,0.9988189988688039
2020-01-01 12:00:02.444,0.9987536811079114
2020-01-01 12:00:02.446,0.9986866064912845
2020-01-01 12:00:02.448,0.9986177751369106
2020-01-01 12:00:02.450,0.9985471871658675
2020-01-01 12:00:02.452,0.9984748427023228
2020-01-01 12:00:02.454,0.9984007418735337
2020-01-01 12:00:02.456,0.9983248848098473
2020-01-01 12:00:02.458,0.9982472716446997
2020-01-01 12:00:02.460,0.9981679025146164
2020-01-01 12:00:02.462,0.9980867775592113
2020-01-01 12:00:02.464,0.9980038969211872
2020-01-01 12:00:02.466,0.997919260746335
2020-01-01 12:00:02.468,0.997832869183534
2020-01-01 12:00:02.470,0.9977447223847509
2020-01-01 12:00:02.472,0.9976548205050404
2020-01-01 12:00:02.474,0.9975631637025439
2020-01-01 12:00:02.476,0.9974697521384905
2020-01-01 12:00:02.478,0.9973745859771954
2020-01-01 12:00:02.480,0.9972776653860606
2020-01-01 12:00:02.482,0.9971789905355738
2020-01-01 12:00:02.484,0.997078561599309
2020-01-01 12:00:02.486,0.9969763787539255
2020-01-01 12:00:02.488,0.9968724421791679
2020-01-01 12:00:02.490,0.9967667520578656
2020-01-01 12:00:02.492,0.9966593085759325
2020-01-01 12:00:02.494,0.9965501119223671
2020-01-01 12:00:02.496,0.9964391622892512
2020-01-01 12:00:02.498,0.9963264598717508
2020-01-01 12:00:02.500,0.9962120048681149
2020-01-01 12:00:02.502,0.9960957974796751
2020-01-01 12:00:02.504,0.995977837910846
2020-01-01 12:00:02.506,0.9958581263691241
2020-01-01 12:00:02.508,0.9957366630650877
2020-01-01 12:00:02.510,0.9956134482123967
2020-01-01 12:00:02.512,0.9954884820277918
2020-01-01 12:00:02.514,0.9953617647310947
2020-01-01 12:00:02.516,0.9952332965452071
2020-01-01 12:00:02.518,0.9951030776961107
2020-01-01 12:00:02.520,0.9949711084128667
2020-01-01 12:00:02.522,0.9948373889276156
2020-01-01 12:00:02.524,0.9947019194755762
2020-01-01 12:00:02.526,0.9945647002950458
2020-01-01 12:00:02.528,0.9944257316273997
2020-01-01 12:00:02.530,0.9942850137170903
2020-01-01 12:00:02.532,0.9941425468116472
2020-01-01 12:00:02.534,0.9939983311616766
2020-01-01 12:00:02.536,0.9938523670208607
2020-01-01 12:00:02.538,0.9937046546459574
2020-01-01 12:00:02.540,0.9935551942968
2020-01-01 12:00:02.542,0.9934039862362962
2020-01-01 12:00:02.544,0.9932510307304285
2020-01-01 12:00:02.546,0.9930963280482529
2020-01-01 12:00:02.548,0.9929398784618989
2020-01-01 12:00:02.550,0.9927816822465687
2020-01-01 12:00:02.552,0.9926217396805372
2020-01-01 12:00:02.554,0.992460051045151
2020-01-01 12:00:02.556,0.9922966166248282
2020-01-01 12:00:02.558,0.9921314367070577
2020-01-01 12:00:02.560,0.9919645115823991
2020-01-01 12:00:02.562,0.9917958415444815
2020-01-01 12:00:02.564,0.9916254268900038
2020-01-01 12:00:02.566,0.9914532679187334
2020-01-01 12:00:02.568,0.9912793649335064
2020-01-01 12:00:02.570,0.9911037182402264
2020-01-01 12:00:02.572,0.9909263281478643
2020-01-01 12:00:02.574,0.990747194968458
2020-01-01 12:00:02.576,0.9905663190171112
2020-01-01 12:00:02.578,0.9903837006119934
2020-01-01 12:00:02.580,0.9901993400743393
2020-01-01 12:00:02.582,0.9900132377284477
2020-01-01 12:00:02.584,0.9898253939016819
2020-01-01 12:00:02.586,0.989635808924468
2020-01-01 12:00:02.588,0.9894444831302951
2020-01-01 12:00:02.590,0.9892514168557145
2020-01-01 12:00:02.592,0.989056610440339
2020-01-01 12:00:02.594,0.9888600642268426
2020-01-01 12:00:02.596,0.9886617785609594
2020-01-01 12:00:02.598,0.9884617537914835
2020-01-01 12:00:02.600,0.988259990270268
2020-01-01 12:00:02.602,0.9880564883522247
2020-01-01 12:00:02.604,0.9878512483953231
2020-01-01 12:00:02.606,0.9876442707605905
2020-01-01 12:00:02.608,0.9874355558121102
2020-01-01 12:00:02.610,0.9872251039170219
2020-01-01 12:00:02.612,0.9870129154455207
2020-01-01 12:00:02.614,0.9867989907708561
2020-01-01 12:00:02.616,0.9865833302693322
2020-01-01 12:00:02.618,0.986365934320306
2020-01-01 12:00:02.620,0.9861468033061872
2020-01-01 12:00:02.622,0.9859259376124383
2020-01-01 12:00:02.624,0.9857033376275722
2020-01-01 12:00:02.626,0.9854790037431533
2020-01-01 12:00:02.628,0.9852529363537955
2020-01-01 12:00:02.630,0.9850251358571623
2020-01-01 12:00:02.632,0.9847956026539657
2020-01-01 12:00:02.634,0.9845643371479657
2020-01-01 12:00:02.636,0.9843313397459692
2020-01-01 12:00:02.638,0.9840966108578301
2020-01-01 12:00:02.640,0.9838601508964476
2020-01-01 12:00:02.642,0.9836219602777664
2020-01-01 12:00:02.644,0.983382039420775
2020-01-01 12:00:02.646,0.9831403887475058
2020-01-01 12:00:02.648,0.9828970086830339
2020-01-01 12:00:02.650,0.9826518996554766
2020-01-01 12:00:02.652,0.9824050620959925
2020-01-01 12:00:02.654,0.9821564964387807
2020-01-01 12:00:02.656,0.98190620312108
2020-01-01 12:00:02.658,0.9816541825831686
2020-01-01 12:00:02.660,0.9814004352683626
2020-01-01 12:00:02.662,0.9811449616230158
2020-01-01 12:00:02.664,0.9808877620965185
2020-01-01 12:00:02.666,0.9806288371412972
2020-01-01 12:00:02.668,0.9803681872128133
2020-01-01 12:00:02.670,0.9801058127695623
2020-01-01 12:00:02.672,0.9798417142730739
2020-01-01 12:00:02.674,0.9795758921879096
2020-01-01 12:00:02.676,0.9793083469816637
2020-01-01 12:00:02.678,0.9790390791249606
2020-01-01 12:00:02.680,0.9787680890914557
2020-01-01 12:00:02.682,0.9784953773578334
2020-01-01 12:00:02.684,0.9782209444038068
2020-01-01 12:00:02.686,0.9779447907121167
2020-01-01 12:00:02.688,0.9776669167685306
2020-01-01 12:00:02.690,0.9773873230618421
2020-01-01 12:00:02.692,0.9771060100838701
2020-01-01 12:00:02.694,0.9768229783294575
2020-01-01 12:00:02.696,0.976538228296471
2020-01-01 12:00:02.698,0.9762517604857993
2020-01-01 12:00:02.700,0.9759635754013533
2020-01-01 12:00:02.702,0.9756736735500643
2020-01-01 12:00:02.704,0.9753820554418835
2020-01-01 12:00:02.706,0.9750887215897814
2020-01-01 12:00:02.708,0.9747936725097461
2020-01-01 12:00:02.710,0.9744969087207833
2020-01-01 12:00:02.712,0.9741984307449149
2020-01-01 12:00:02.714,0.9738982391071775
2020-01-01 12:00:02.716,0.9735963343356231
2020-01-01 12:00:02.718,0.9732927169613165
2020-01-01 12:00:02.720,0.9729873875183352
2020-01-01 12:00:02.722,0.9726803465437687
2020-01-01 12:00:02.724,0.9723715945777164
2020-01-01 12:00:02.726,0.9720611321632882
2020-01-01 12:00:02.728,0.971748959846602
2020-01-01 12:00:02.730,0.9714350781767844
2020-01-01 12:00:02.732,0.971119487705968
2020-01-01 12:00:02.734,0.9708021889892918
2020-01-01 12:00:02.736,0.9704831825848993
2020-01-01 12:00:02.738,0.9701624690539383
2020-01-01 12:00:02.740,0.9698400489605592
2020-01-01 12:00:02.742,0.9695159228719146
2020-01-01 12:00:02.744,0.9691900913581576
2020-01-01 12:00:02.746,0.9688625549924417
2020-01-01 12:00:02.748,0.968533314350919
2020-01-01 12:00:02.750,0.9682023700127397
2020-01-01 12:00:02.752,0.9678697225600508
2020-01-01 12:00:02.754,0.9675353725779952
2020-01-01 12:00:02.756,0.9671993206547103
2020-01-01 12:00:02.758,0.9668615673813279
2020-01-01 12:00:02.760,0.9665221133519721
2020-01-01 12:00:02.762,0.9661809591637591
2020-01-01 12:00:02.764,0.9658381054167952
2020-01-01 12:00:02.766,0.9654935527141766
2020-01-01 12:00:02.768,0.9651473016619884
2020-01-01 12:00:02.770,0.9647993528693025
2020-01-01 12:00:02.772,0.9644497069481779
2020-01-01 12:00:02.774,0.9640983645136583
2020-01-01 12:00:02.776,0.9637453261837718
2020-01-01 12:00:02.778,0.9633905925795303
2020-01-01 12:00:02.780,0.9630341643249268
2020-01-01 12:00:02.782,0.962676042046936
2020-01-01 12:00:02.784,0.9623162263755121
2020-01-01 12:00:02.786,0.9619547179435881
2020-01-01 12:00:02.788,0.9615915173870748
2020-01-01 12:00:02.790,0.9612266253448595
2020-01-01 12:00:02.792,0.9608600424588046
2020-01-01 12:00:02.794,0.9604917693737474
2020-01-01 12:00:02.796,0.9601218067374975
2020-01-01 12:00:02.798,0.9597501552008373
2020-01-01 12:00:02.800,0.9593768154175196
2020-01-01 12:00:02.802,0.9590017880442671
2020-01-01 12:00:02.804,0.9586250737407708
2020-01-01 12:00:02.806,0.9582466731696894
2020-01-01 12:00:02.808,0.9578665869966477
2020-01-01 12:00:02.810,0.9574848158902356
2020-01-01 12:00:02.812,0.9571013605220067
2020-01-01 12:00:02.814,0.9567162215664774
2020-01-01 12:00:02.816,0.9563293997011257
2020-01-01 12:00:02.818,0.9559408956063901
2020-01-01 12:00:02.820,0.9555507099656676
2020-01-01 12:00:02.822,0.9551588434653137
2020-01-01 12:00:02.824,0.9547652967946403
2020-01-01 12:00:02.826,0.9543700706459148
2020-01-01 12:00:02.828,0.9539731657143594
2020-01-01 12:00:02.830,0.9535745826981487
2020-01-01 12:00:02.832,0.9531743222984094
2020-01-01 12:00:02.834,0.9527723852192187
2020-01-01 12:00:02.836,0.9523687721676033
2020-01-01 12:00:02.838,0.9519634838535381
2020-01-01 12:00:02.840,0.9515565209899445
2020-01-01 12:00:02.842,0.9511478842926899
2020-01-01 12:00:02.844,0.9507375744805859
2020-01-01 12:00:02.846,0.950325592275387
2020-01-01 12:00:02.848,0.94991193840179
2020-01-01 12:00:02.850,0.9494966135874316
2020-01-01 12:00:02.852,0.9490796185628884
2020-01-01 12:00:02.854,0.9486609540616746
2020-01-01 12:00:02.856,0.9482406208202411
2020-01-01 12:00:02.858,0.9478186195779744
2020-01-01 12:00:02.860,0.9473949510771948
2020-01-01 12:00:02.862,0.9469696160631558
2020-01-01 12:00:02.864,0.946542615284042
2020-01-01 12:00:02.866,0.9461139494909683
2020-01-01 12:00:02.868,0.9456836194379784
2020-01-01 12:00:02.870,0.9452516258820436
2020-01-01 12:00:02.872,0.9448179695830613
2020-01-01 12:00:02.874,0.9443826513038538
2020-01-01 12:00:02.876,0.9439456718101669
2020-01-01 12:00:02.878,0.9435070318706685
2020-01-01 12:00:02.880,0.9430667322569473
2020-01-01 12:00:02.882,0.9426247737435115
2020-01-01 12:00:02.884,0.9421811571077876
2020-01-01 12:00:02.886,0.9417358831301181
2020-01-01 12:00:02.888,0.9412889525937619
2020-01-01 12:00:02.890,0.9408403662848909
2020-01-01 12:00:02.892,0.94039012499259
2020-01-01 12:00:02.894,0.9399382295088555
2020-01-01 12:00:02.896,0.939484680628593
2020-01-01 12:00:02.898,0.9390294791496171
2020-01-01 12:00:02.900,0.9385726258726489
2020-01-01 12:00:02.902,0.9381141216013151
2020-01-01 12:00:02.904,0.9376539671421472
2020-01-01 12:00:02.906,0.9371921633045786
2020-01-01 12:00:02.908,0.9367287109009447
2020-01-01 12:00:02.910,0.9362636107464803
2020-01-01 12:00:02.912,0.9357968636593192
2020-01-01 12:00:02.914,0.9353284704604918
2020-01-01 12:00:02.916,0.9348584319739244
2020-01-01 12:00:02.918,0.9343867490264371
2020-01-01 12:00:02.920,0.9339134224477431
2020-01-01 12:00:02.922,0.9334384530704463
2020-01-01 12:00:02.924,0.932961841730041
2020-01-01 12:00:02.926,0.9324835892649093
2020-01-01 12:00:02.928,0.9320036965163202
2020-01-01 12:00:02.930,0.9315221643284282
2020-01-01 12:00:02.932,0.9310389935482715
2020-01-01 12:00:02.934,0.9305541850257709
2020-01-01 12:00:02.936,0.9300677396137277
2020-01-01 12:00:02.938,0.9295796581678228
2020-01-01 12:00:02.940,0.9290899415466151
2020-01-01 12:00:02.942,0.9285985906115395
2020-01-01 12:00:02.944,0.928105606226906
2020-01-01 12:00:02.946,0.9276109892598976
2020-01-01 12:00:02.948,0.9271147405805698
2020-01-01 12:00:02.950,0.9266168610618473
2020-01-01 12:00:02.952,0.9261173515795245
2020-01-01 12:00:02.954,0.9256162130122625
2020-01-01 12:00:02.956,0.9251134462415882
2020-01-01 12:00:02.958,0.9246090521518924
2020-01-01 12:00:02.960,0.9241030316304285
2020-01-01 12:00:02.962,0.923595385567311
2020-01-01 12:00:02.964,0.9230861148555138
2020-01-01 12:00:02.966,0.9225752203908685
2020-01-01 12:00:02.968,0.922062703072063
2020-01-01 12:00:02.970,0.9215485638006399
2020-01-01 12:00:02.972,0.9210328034809948
2020-01-01 12:00:02.974,0.9205154230203751
2020-01-01 12:00:02.976,0.9199964233288779
2020-01-01 12:00:02.978,0.9194758053194484
2020-01-01 12:00:02.980,0.9189535699078788
2020-01-01 12:00:02.982,0.9184297180128064
2020-01-01 12:00:02.984,0.9179042505557117
2020-01-01 12:00:02.986,0.9173771684609173
2020-01-01 12:00:02.988,0.9168484726555859
2020-01-01 12:00:02.990,0.9163181640697189
2020-01-01 12:00:02.992,0.9157862436361546
2020-01-01 12:00:02.994,0.9152527122905665
2020-01-01 12:00:02.996,0.9147175709714619
2020-01-01 12:00:02.998,0.9141808206201802
2020-01-01 12:00:03.000,0.9136424621808911
2020-01-01 12:00:03.002,0.9131024966005928
2020-01-01 12:00:03.004,0.9125609248291109
2020-01-01 12:00:03.006,0.9120177478190961
2020-01-01 12:00:03.008,0.9114729665260226
2020-01-01 12:00:03.010,0.9109265819081874
2020-01-01 12:00:03.012,0.910378594926707
2020-01-01 12:00:03.014,0.9098290065455169
2020-01-01 12:00:03.016,0.9092778177313694
2020-01-01 12:00:03.018,0.9087250294538323
2020-01-01 12:00:03.020,0.9081706426852865
2020-01-01 12:00:03.022,0.9076146584009254
2020-01-01 12:00:03.024,0.9070570775787515
2020-01-01 12:00:03.026,0.9064979011995766
2020-01-01 12:00:03.028,0.9059371302470188
2020-01-01 12:00:03.030,0.9053747657075012
2020-01-01 12:00:03.032,0.9048108085702502
2020-01-01 12:00:03.034,0.9042452598272932
2020-01-01 12:00:03.036,0.9036781204734576
2020-01-01 12:00:03.038,0.903109391506369
2020-01-01 12:00:03.040,0.902539073926449
2020-01-01 12:00:03.042,0.9019671687369137
2020-01-01 12:00:03.044,0.9013936769437716
2020-01-01 12:00:03.046,0.9008185995558222
2020-01-01 12:00:03.048,0.9002419375846547
2020-01-01 12:00:03.050,0.8996636920446449
2020-01-01 12:00:03.052,0.8990838639529549
2020-01-01 12:00:03.054,0.8985024543295297
2020-01-01 12:00:03.056,0.8979194641970969
2020-01-01 12:00:03.058,0.8973348945811642
2020-01-01 12:00:03.060,0.8967487465100178
2020-01-01 12:00:03.062,0.8961610210147204
2020-01-01 12:00:03.064,0.895571719129109
2020-01-01 12:00:03.066,0.8949808418897943
2020-01-01 12:00:03.068,0.8943883903361576
2020-01-01 12:00:03.070,0.8937943655103495
2020-01-01 12:00:03.072,0.8931987684572888
2020-01-01 12:00:03.074,0.8926016002246588
2020-01-01 12:00:03.076,0.8920028618629072
2020-01-01 12:00:03.078,0.8914025544252437
2020-01-01 12:00:03.080,0.8908006789676379
2020-01-01 12:00:03.082,0.8901972365488179
2020-01-01 12:00:03.084,0.8895922282302675
2020-01-01 12:00:03.086,0.8889856550762255
2020-01-01 12:00:03.088,0.8883775181536834
2020-01-01 12:00:03.090,0.8877678185323831
2020-01-01 12:00:03.092,0.8871565572848159
2020-01-01 12:00:03.094,0.8865437354862193
2020-01-01 12:00:03.096,0.8859293542145765
2020-01-01 12:00:03.098,0.8853134145506136
2020-01-01 12:00:03.100,0.8846959175777982
2020-01-01 12:00:03.102,0.8840768643823372
2020-01-01 12:00:03.104,0.8834562560531747
2020-01-01 12:00:03.106,0.8828340936819906
2020-01-01 12:00:03.108,0.8822103783631986
2020-01-01 12:00:03.110,0.8815851111939439
2020-01-01 12:00:03.112,0.8809582932741016
2020-01-01 12:00:03.114,0.8803299257062742
2020-01-01 12:00:03.116,0.8797000095957908
2020-01-01 12:00:03.118,0.8790685460507037
2020-01-01 12:00:03.120,0.8784355361817882
2020-01-01 12:00:03.122,0.8778009811025388
2020-01-01 12:00:03.124,0.8771648819291683
2020-01-01 12:00:03.126,0.8765272397806059
2020-01-01 12:00:03.128,0.8758880557784945
2020-01-01 12:00:03.130,0.8752473310471898
2020-01-01 12:00:03.132,0.8746050667137574
2020-01-01 12:00:03.134,0.8739612639079709
2020-01-01 12:00:03.136,0.8733159237623105
2020-01-01 12:00:03.138,0.8726690474119605
2020-01-01 12:00:03.140,0.8720206359948076
2020-01-01 12:00:03.142,0.8713706906514386
2020-01-01 12:00:03.144,0.8707192125251387
2020-01-01 12:00:03.146,0.8700662027618891
2020-01-01 12:00:03.148,0.8694116625103652
2020-01-01 12:00:03.150,0.868755592921935
2020-01-01 12:00:03.152,0.8680979951506564
2020-01-01 12:00:03.154,0.8674388703532758
2020-01-01 12:00:03.156,0.8667782196892249
2020-01-01 12:00:03.158,0.86611604432062
2020-01-01 12:00:03.160,0.8654523454122597
2020-01-01 12:00:03.162,0.8647871241316221
2020-01-01 12:00:03.164,0.8641203816488637
2020-01-01 12:00:03.166,0.8634521191368162
2020-01-01 12:00:03.168,0.8627823377709856
2020-01-01 12:00:03.170,0.8621110387295494
2020-01-01 12:00:03.172,0.8614382231933552
2020-01-01 12:00:03.174,0.8607638923459178
2020-01-01 12:00:03.176,0.8600880473734174
2020-01-01 12:00:03.178,0.8594106894646977
2020-01-01 12:00:03.180,0.8587318198112641
2020-01-01 12:00:03.182,0.8580514396072807
2020-01-01 12:00:03.184,0.8573695500495695
2020-01-01 12:00:03.186,0.8566861523376064
2020-01-01 12:00:03.188,0.856001247673521
2020-01-01 12:00:03.190,0.8553148372620936
2020-01-01 12:00:03.192,0.8546269223107531
2020-01-01 12:00:03.194,0.8539375040295751
2020-01-01 12:00:03.196,0.8532465836312793
2020-01-01 12:00:03.198,0.8525541623312278
2020-01-01 12:00:03.200,0.8518602413474232
2020-01-01 12:00:03.202,0.8511648219005058
2020-01-01 12:00:03.204,0.850467905213752
2020-01-01 12:00:03.206,0.8497694925130713
2020-01-01 12:00:03.208,0.8490695850270055
2020-01-01 12:00:03.210,0.8483681839867254
2020-01-01 12:00:03.212,0.8476652906260294
2020-01-01 12:00:03.214,0.8469609061813406
2020-01-01 12:00:03.216,0.8462550318917049
2020-01-01 12:00:03.218,0.8455476689987892
2020-01-01 12:00:03.220,0.8448388187468789
2020-01-01 12:00:03.222,0.8441284823828756
2020-01-01 12:00:03.224,0.8434166611562954
2020-01-01 12:00:03.226,0.8427033563192656
2020-01-01 12:00:03.228,0.8419885691265239
2020-01-01 12:00:03.230,0.8412723008354153
2020-01-01 12:00:03.232,0.8405545527058902
2020-01-01 12:00:03.234,0.8398353260005023
2020-01-01 12:00:03.236,0.8391146219844053
2020-01-01 12:00:03.238,0.8383924419253528
2020-01-01 12:00:03.240,0.8376687870936939
2020-01-01 12:00:03.242,0.8369436587623724
2020-01-01 12:00:03.244,0.8362170582069242
2020-01-01 12:00:03.246,0.835488986705474
2020-01-01 12:00:03.248,0.8347594455387348
2020-01-01 12:00:03.250,0.8340284359900046
2020-01-01 12:00:03.252,0.8332959593451644
2020-01-01 12:00:03.254,0.8325620168926761
2020-01-01 12:00:03.256,0.8318266099235792
2020-01-01 12:00:03.258,0.83108973973149
2020-01-01 12:00:03.260,0.8303514076125987
2020-01-01 12:00:03.262,0.8296116148656671
2020-01-01 12:00:03.264,0.8288703627920265
2020-01-01 12:00:03.266,0.8281276526955742
2020-01-01 12:00:03.268,0.8273834858827733
2020-01-01 12:00:03.270,0.826637863662649
2020-01-01 12:00:03.272,0.8258907873467868
2020-01-01 12:00:03.274,0.8251422582493297
2020-01-01 12:00:03.276,0.8243922776869763
2020-01-01 12:00:03.278,0.8236408469789784
2020-01-01 12:00:03.280,0.8228879674471389
2020-01-01 12:00:03.282,0.822133640415809
2020-01-01 12:00:03.284,0.8213778672118865
2020-01-01 12:00:03.286,0.8206206491648123
2020-01-01 12:00:03.288,0.8198619876065696
2020-01-01 12:00:03.290,0.8191018838716805
2020-01-01 12:00:03.292,0.8183403392972041
2020-01-01 12:00:03.294,0.8175773552227341
2020-01-01 12:00:03.296,0.8168129329903956
2020-01-01 12:00:03.298,0.8160470739448444
2020-01-01 12:00:03.300,0.8152797794332634
2020-01-01 12:00:03.302,0.8145110508053603
2020-01-01 12:00:03.304,0.8137408894133663
2020-01-01 12:00:03.306,0.8129692966120317
2020-01-01 12:00:03.308,0.8121962737586254
2020-01-01 12:00:03.310,0.8114218222129318
2020-01-01 12:00:03.312,0.8106459433372486
2020-01-01 12:00:03.314,0.809868638496384
2020-01-01 12:00:03.316,0.8090899090576544
2020-01-01 12:00:03.318,0.8083097563908824
2020-01-01 12:00:03.320,0.807528181868394
2020-01-01 12:00:03.322,0.8067451868650164
2020-01-01 12:00:03.324,0.8059607727580758
2020-01-01 12:00:03.326,0.8051749409273936
2020-01-01 12:00:03.328,0.8043876927552862
2020-01-01 12:00:03.330,0.8035990296265609
2020-01-01 12:00:03.332,0.8028089529285141
2020-01-01 12:00:03.334,0.8020174640509288
2020-01-01 12:00:03.336,0.8012245643860717
2020-01-01 12:00:03.338,0.8004302553286915
2020-01-01 12:00:03.340,0.7996345382760162
2020-01-01 12:00:03.342,0.7988374146277502
2020-01-01 12:00:03.344,0.7980388857860724
2020-01-01 12:00:03.346,0.7972389531556332
2020-01-01 12:00:03.348,0.7964376181435527
2020-01-01 12:00:03.350,0.7956348821594178
2020-01-01 12:00:03.352,0.7948307466152795
2020-01-01 12:00:03.354,0.7940252129256513
2020-01-01 12:00:03.356,0.7932182825075051
2020-01-01 12:00:03.358,0.7924099567802705
2020-01-01 12:00:03.360,0.7916002371658314
2020-01-01 12:00:03.362,0.7907891250885234
2020-01-01 12:00:03.364,0.7899766219751321
2020-01-01 12:00:03.366,0.7891627292548887
2020-01-01 12:00:03.368,0.7883474483594701
2020-01-01 12:00:03.370,0.7875307807229948
2020-01-01 12:00:03.372,0.7867127277820198
2020-01-01 12:00:03.374,0.7858932909755402
2020-01-01 12:00:03.376,0.7850724717449846
2020-01-01 12:00:03.378,0.7842502715342131
2020-01-01 12:00:03.380,0.7834266917895157
2020-01-01 12:00:03.382,0.7826017339596086
2020-01-01 12:00:03.384,0.7817753994956325
2020-01-01 12:00:03.386,0.7809476898511495
2020-01-01 12:00:03.388,0.7801186064821402
2020-01-01 12:00:03.390,0.7792881508470023
2020-01-01 12:00:03.392,0.7784563244065473
2020-01-01 12:00:03.394,0.7776231286239979
2020-01-01 12:00:03.396,0.7767885649649857
2020-01-01 12:00:03.398,0.7759526348975477
2020-01-01 12:00:03.400,0.7751153398921256
2020-01-01 12:00:03.402,0.7742766814215614
2020-01-01 12:00:03.404,0.7734366609610955
2020-01-01 12:00:03.406,0.7725952799883649
2020-01-01 12:00:03.408,0.7717525399833982
2020-01-01 12:00:03.410,0.7709084424286163
2020-01-01 12:00:03.412,0.7700629888088271
2020-01-01 12:00:03.414,0.7692161806112242
2020-01-01 12:00:03.416,0.7683680193253842
2020-01-01 12:00:03.418,0.767518506443263
2020-01-01 12:00:03.420,0.766667643459195
2020-01-01 12:00:03.422,0.7658154318698891
2020-01-01 12:00:03.424,0.7649618731744262
2020-01-01 12:00:03.426,0.7641069688742576
2020-01-01 12:00:03.428,0.7632507204732003
2020-01-01 12:00:03.430,0.7623931294774369
2020-01-01 12:00:03.432,0.761534197395511
2020-01-01 12:00:03.434,0.7606739257383254
2020-01-01 12:00:03.436,0.7598123160191398
2020-01-01 12:00:03.438,0.7589493697535663
2020-01-01 12:00:03.440,0.7580850884595693
2020-01-01 12:00:03.442,0.7572194736574612
2020-01-01 12:00:03.444,0.7563525268698998
2020-01-01 12:00:03.446,0.7554842496218869
2020-01-01 12:00:03.448,0.7546146434407628
2020-01-01 12:00:03.450,0.7537437098562071
2020-01-01 12:00:03.452,0.752871450400234
2020-01-01 12:00:03.454,0.7519978666071896
2020-01-01 12:00:03.456,0.7511229600137501
2020-01-01 12:00:03.458,0.7502467321589177
2020-01-01 12:00:03.460,0.7493691845840196
2020-01-01 12:00:03.462,0.7484903188327042
2020-01-01 12:00:03.464,0.7476101364509387
2020-01-01 12:00:03.466,0.7467286389870063
2020-01-01 12:00:03.468,0.745845827991503
2020-01-01 12:00:03.470,0.7449617050173359
2020-01-01 12:00:03.472,0.74407627161972
2020-01-01 12:00:03.474,0.7431895293561752
2020-01-01 12:00:03.476,0.7423014797865237
2020-01-01 12:00:03.478,0.7414121244728873
2020-01-01 12:00:03.480,0.7405214649796847
2020-01-01 12:00:03.482,0.739629502873629
2020-01-01 12:00:03.484,0.7387362397237243
2020-01-01 12:00:03.486,0.7378416771012635
2020-01-01 12:00:03.488,0.736945816579825
2020-01-01 12:00:03.490,0.7360486597352707
2020-01-01 12:00:03.492,0.7351502081457426
2020-01-01 12:00:03.494,0.7342504633916602
2020-01-01 12:00:03.496,0.7333494270557182
2020-01-01 12:00:03.498,0.7324471007228821
2020-01-01 12:00:03.500,0.7315434859803877
2020-01-01 12:00:03.502,0.7306385844177365
2020-01-01 12:00:03.504,0.7297323976266942
2020-01-01 12:00:03.506,0.728824927201287
2020-01-01 12:00:03.508,0.7279161747377985
2020-01-01 12:00:03.510,0.7270061418347682
2020-01-01 12:00:03.512,0.7260948300929879
2020-01-01 12:00:03.514,0.7251822411154984
2020-01-01 12:00:03.516,0.7242683765075884
2020-01-01 12:00:03.518,0.7233532378767884
2020-01-01 12:00:03.520,0.7224368268328721
2020-01-01 12:00:03.522,0.7215191449878504
2020-01-01 12:00:03.524,0.7206001939559699
2020-01-01 12:00:03.526,0.7196799753537095
2020-01-01 12:00:03.528,0.7187584907997779
2020-01-01 12:00:03.530,0.7178357419151107
2020-01-01 12:00:03.532,0.7169117303228676
2020-01-01 12:00:03.534,0.7159864576484295
2020-01-01 12:00:03.536,0.7150599255193957
2020-01-01 12:00:03.538,0.7141321355655803
2020-01-01 12:00:03.540,0.7132030894190106
2020-01-01 12:00:03.542,0.7122727887139233
2020-01-01 12:00:03.544,0.7113412350867624
2020-01-01 12:00:03.546,0.7104084301761755
2020-01-01 12:00:03.548,0.709474375623011
2020-01-01 12:00:03.550,0.7085390730703156
2020-01-01 12:00:03.552,0.7076025241633319
2020-01-01 12:00:03.554,0.7066647305494942
2020-01-01 12:00:03.556,0.705725693878427
2020-01-01 12:00:03.558,0.7047854158019401
2020-01-01 12:00:03.560,0.7038438979740284
2020-01-01 12:00:03.562,0.7029011420508668
2020-01-01 12:00:03.564,0.7019571496908085
2020-01-01 12:00:03.566,0.7010119225543815
2020-01-01 12:00:03.568,0.7000654623042855
2020-01-01 12:00:03.570,0.6991177706053895
2020-01-01 12:00:03.572,0.6981688491247289
2020-01-01 12:00:03.574,0.6972186995315023
2020-01-01 12:00:03.576,0.6962673234970687
2020-01-01 12:00:03.578,0.6953147226949437
2020-01-01 12:00:03.580,0.6943608988007982
2020-01-01 12:00:03.582,0.6934058534924543
2020-01-01 12:00:03.584,0.6924495884498827
2020-01-01 12:00:03.586,0.6914921053551997
2020-01-01 12:00:03.588,0.6905334058926635
2020-01-01 12:00:03.590,0.6895734917486729
2020-01-01 12:00:03.592,0.6886123646117631
2020-01-01 12:00:03.594,0.6876500261726028
2020-01-01 12:00:03.596,0.686686478123992
2020-01-01 12:00:03.598,0.6857217221608572
2020-01-01 12:00:03.600,0.6847557599802512
2020-01-01 12:00:03.602,0.6837885932813476
2020-01-01 12:00:03.604,0.682820223765439
2020-01-01 12:00:03.606,0.6818506531359344
2020-01-01 12:00:03.608,0.680879883098355
2020-01-01 12:00:03.610,0.6799079153603317
2020-01-01 12:00:03.612,0.6789347516316024
2020-01-01 12:00:03.614,0.6779603936240092
2020-01-01 12:00:03.616,0.6769848430514945
2020-01-01 12:00:03.618,0.6760081016300992
2020-01-01 12:00:03.620,0.6750301710779574
2020-01-01 12:00:03.622,0.6740510531152966
2020-01-01 12:00:03.624,0.673070749464432
2020-01-01 12:00:03.626,0.6720892618497653
2020-01-01 12:00:03.628,0.6711065919977803
2020-01-01 12:00:03.630,0.6701227416370402
2020-01-01 12:00:03.632,0.6691377124981852
2020-01-01 12:00:03.634,0.6681515063139291
2020-01-01 12:00:03.636,0.6671641248190556
2020-01-01 12:00:03.638,0.6661755697504169
2020-01-01 12:00:03.640,0.665185842846928
2020-01-01 12:00:03.642,0.6641949458495667
2020-01-01 12:00:03.644,0.6632028805013682
2020-01-01 12:00:03.646,0.6622096485474233
2020-01-01 12:00:03.648,0.6612152517348748
2020-01-01 12:00:03.650,0.6602196918129143
2020-01-01 12:00:03.652,0.6592229705327795
2020-01-01 12:00:03.654,0.6582250896477511
2020-01-01 12:00:03.656,0.6572260509131497
2020-01-01 12:00:03.658,0.6562258560863325
2020-01-01 12:00:03.660,0.6552245069266901
2020-01-01 12:00:03.662,0.6542220051956438
2020-01-01 12:00:03.664,0.6532183526566422
2020-01-01 12:00:03.666,0.6522135510751587
2020-01-01 12:00:03.668,0.6512076022186877
2020-01-01 12:00:03.670,0.650200507856741
2020-01-01 12:00:03.672,0.6491922697608463
2020-01-01 12:00:03.674,0.648182889704543
2020-01-01 12:00:03.676,0.647172369463379
2020-01-01 12:00:03.678,0.6461607108149082
2020-01-01 12:00:03.680,0.6451479155386864
2020-01-01 12:00:03.682,0.6441339854162694
2020-01-01 12:00:03.684,0.6431189222312089
2020-01-01 12:00:03.686,0.6421027277690501
2020-01-01 12:00:03.688,0.6410854038173279
2020-01-01 12:00:03.690,0.6400669521655636
2020-01-01 12:00:03.692,0.639047374605263
2020-01-01 12:00:03.694,0.6380266729299118
2020-01-01 12:00:03.696,0.6370048489349734
2020-01-01 12:00:03.698,0.6359819044178858
2020-01-01 12:00:03.700,0.6349578411780568
2020-01-01 12:00:03.702,0.6339326610168632
2020-01-01 12:00:03.704,0.6329063657376461
2020-01-01 12:00:03.706,0.6318789571457084
2020-01-01 12:00:03.708,0.6308504370483115
2020-01-01 12:00:03.710,0.6298208072546709
2020-01-01 12:00:03.712,0.6287900695759554
2020-01-01 12:00:03.714,0.627758225825282
2020-01-01 12:00:03.716,0.6267252778177135
2020-01-01 12:00:03.718,0.6256912273702553
2020-01-01 12:00:03.720,0.6246560763018515
2020-01-01 12:00:03.722,0.6236198264333825
2020-01-01 12:00:03.724,0.622582479587662
2020-01-01 12:00:03.726,0.6215440375894329
2020-01-01 12:00:03.728,0.6205045022653647
2020-01-01 12:00:03.730,0.6194638754440496
2020-01-01 12:00:03.732,0.6184221589560003
2020-01-01 12:00:03.734,0.6173793546336463
2020-01-01 12:00:03.736,0.6163354643113306
2020-01-01 12:00:03.738,0.6152904898253067
2020-01-01 12:00:03.740,0.6142444330137342
2020-01-01 12:00:03.742,0.6131972957166779
2020-01-01 12:00:03.744,0.6121490797761024
2020-01-01 12:00:03.746,0.61109978703587
2020-01-01 12:00:03.748,0.6100494193417375
2020-01-01 12:00:03.750,0.6089979785413514
2020-01-01 12:00:03.752,0.6079454664842469
2020-01-01 12:00:03.754,0.6068918850218433
2020-01-01 12:00:03.756,0.6058372360074412
2020-01-01 12:00:03.758,0.6047815212962192
2020-01-01 12:00:03.760,0.6037247427452294
2020-01-01 12:00:03.762,0.6026669022133965
2020-01-01 12:00:03.764,0.6016080015615128
2020-01-01 12:00:03.766,0.6005480426522356
2020-01-01 12:00:03.768,0.5994870273500839
2020-01-01 12:00:03.770,0.5984249575214337
2020-01-01 12:00:03.772,0.5973618350345173
2020-01-01 12:00:03.774,0.5962976617594185
2020-01-01 12:00:03.776,0.5952324395680689
2020-01-01 12:00:03.778,0.5941661703342462
2020-01-01 12:00:03.780,0.5930988559335684
2020-01-01 12:00:03.782,0.5920304982434931
2020-01-01 12:00:03.784,0.590961099143313
2020-01-01 12:00:03.786,0.5898906605141523
2020-01-01 12:00:03.788,0.5888191842389646
2020-01-01 12:00:03.790,0.5877466722025274
2020-01-01 12:00:03.792,0.5866731262914412
2020-01-01 12:00:03.794,0.5855985483941248
2020-01-01 12:00:03.796,0.5845229404008127
2020-01-01 12:00:03.798,0.583446304203551
2020-01-01 12:00:03.800,0.5823686416961941
2020-01-01 12:00:03.802,0.5812899547744024
2020-01-01 12:00:03.804,0.580210245335638
2020-01-01 12:00:03.806,0.5791295152791619
2020-01-01 12:00:03.808,0.5780477665060304
2020-01-01 12:00:03.810,0.576965000919091
2020-01-01 12:00:03.812,0.5758812204229805
2020-01-01 12:00:03.814,0.5747964269241213
2020-01-01 12:00:03.816,0.5737106223307169
2020-01-01 12:00:03.818,0.5726238085527505
2020-01-01 12:00:03.820,0.5715359875019788
2020-01-01 12:00:03.822,0.5704471610919317
2020-01-01 12:00:03.824,0.5693573312379074
2020-01-01 12:00:03.826,0.5682664998569689
2020-01-01 12:00:03.828,0.5671746688679412
2020-01-01 12:00:03.830,0.566081840191407
2020-01-01 12:00:03.832,0.5649880157497047
2020-01-01 12:00:03.834,0.5638931974669242
2020-01-01 12:00:03.836,0.5627973872689034
2020-01-01 12:00:03.838,0.5617005870832256
2020-01-01 12:00:03.840,0.560602798839214
2020-01-01 12:00:03.842,0.5595040244679317
2020-01-01 12:00:03.844,0.5584042659021753
2020-01-01 12:00:03.846,0.5573035250764731
2020-01-01 12:00:03.848,0.5562018039270811
2020-01-01 12:00:03.850,0.5550991043919802
2020-01-01 12:00:03.852,0.553995428410871
2020-01-01 12:00:03.854,0.5528907779251732
2020-01-01 12:00:03.856,0.5517851548780198
2020-01-01 12:00:03.858,0.5506785612142553
2020-01-01 12:00:03.860,0.549570998880431
2020-01-01 12:00:03.862,0.5484624698248021
2020-01-01 12:00:03.864,0.5473529759973244
2020-01-01 12:00:03.866,0.5462425193496512
2020-01-01 12:00:03.868,0.5451311018351288
2020-01-01 12:00:03.870,0.5440187254087947
2020-01-01 12:00:03.872,0.5429053920273716
2020-01-01 12:00:03.874,0.541791103649267
2020-01-01 12:00:03.876,0.5406758622345674
2020-01-01 12:00:03.878,0.5395596697450363
2020-01-01 12:00:03.880,0.5384425281441103
2020-01-01 12:00:03.882,0.5373244393968943
2020-01-01 12:00:03.884,0.5362054054701607
2020-01-01 12:00:03.886,0.5350854283323438
2020-01-01 12:00:03.888,0.5339645099535374
2020-01-01 12:00:03.890,0.532842652305491
2020-01-01 12:00:03.892,0.5317198573616055
2020-01-01 12:00:03.894,0.5305961270969315
2020-01-01 12:00:03.896,0.5294714634881645
2020-01-01 12:00:03.898,0.5283458685136421
2020-01-01 12:00:03.900,0.5272193441533399
2020-01-01 12:00:03.902,0.5260918923888681
2020-01-01 12:00:03.904,0.5249635152034687
2020-01-01 12:00:03.906,0.5238342145820114
2020-01-01 12:00:03.908,0.5227039925109904
2020-01-01 12:00:03.910,0.5215728509785209
2020-01-01 12:00:03.912,0.5204407919743346
2020-01-01 12:00:03.914,0.5193078174897778
2020-01-01 12:00:03.916,0.5181739295178075
2020-01-01 12:00:03.918,0.5170391300529869
2020-01-01 12:00:03.920,0.5159034210914831
2020-01-01 12:00:03.922,0.5147668046310622
2020-01-01 12:00:03.924,0.5136292826710875
2020-01-01 12:00:03.926,0.5124908572125147
2020-01-01 12:00:03.928,0.5113515302578892
2020-01-01 12:00:03.930,0.5102113038113419
2020-01-01 12:00:03.932,0.5090701798785854
2020-01-01 12:00:03.934,0.5079281604669118
2020-01-01 12:00:03.936,0.5067852475851883
2020-01-01 12:00:03.938,0.5056414432438534
2020-01-01 12:00:03.940,0.5044967494549145
2020-01-01 12:00:03.942,0.503351168231942
2020-01-01 12:00:03.944,0.502204701590069
2020-01-01 12:00:03.946,0.5010573515459853
2020-01-01 12:00:03.948,0.49990912011793465
2020-01-01 12:00:03.950,0.4987600093257119
2020-01-01 12:00:03.952,0.4976100211906573
2020-01-01 12:00:03.954,0.4964591577356557
2020-01-01 12:00:03.956,0.4953074209851312
2020-01-01 12:00:03.958,0.4941548129650441
2020-01-01 12:00:03.960,0.4930013357028878
2020-01-01 12:00:03.962,0.49184699122768333
2020-01-01 12:00:03.964,0.49069178156997856
2020-01-01 12:00:03.966,0.4895357087618428
2020-01-01 12:00:03.968,0.48837877483686376
2020-01-01 12:00:03.970,0.4872209818301441
2020-01-01 12:00:03.972,0.4860623317782967
2020-01-01 12:00:03.974,0.48490282671944307
2020-01-01 12:00:03.976,0.48374246869320825
2020-01-01 12:00:03.978,0.48258125974071786
2020-01-01 12:00:03.980,0.4814192019045947
2020-01-01 12:00:03.982,0.48025629722895347
2020-01-01 12:00:03.984,0.47909254775939986
2020-01-01 12:00:03.986,0.47792795554302514
2020-01-01 12:00:03.988,0.47676252262840296
2020-01-01 12:00:03.990,0.47559625106558623
2020-01-01 12:00:03.992,0.4744291429061019
2020-01-01 12:00:03.994,0.47326120020294976
2020-01-01 12:00:03.996,0.47209242501059717
2020-01-01 12:00:03.998,0.4709228193849758
2020-01-01 12:00:04.000,0.46975238538347863
2020-01-01 12:00:04.002,0.46858112506495453
2020-01-01 12:00:04.004,0.46740904048970705
2020-01-01 12:00:04.006,0.4662361337194894
2020-01-01 12:00:04.008,0.4650624068175009
2020-01-01 12:00:04.010,0.46388786184838393
2020-01-01 12:00:04.012,0.46271250087821886
2020-01-01 12:00:04.014,0.4615363259745225
2020-01-01 12:00:04.016,0.46035933920624306
2020-01-01 12:00:04.018,0.45918154264375677
2020-01-01 12:00:04.020,0.45800293835886485
2020-01-01 12:00:04.022,0.45682352842478813
2020-01-01 12:00:04.024,0.4556433149161657
2020-01-01 12:00:04.026,0.4544622999090499
2020-01-01 12:00:04.028,0.4532804854809029
2020-01-01 12:00:04.030,0.45209787371059346
2020-01-01 12:00:04.032,0.45091446667839175
2020-01-01 12:00:04.034,0.44973026646596803
2020-01-01 12:00:04.036,0.4485452751563874
2020-01-01 12:00:04.038,0.44735949483410653
2020-01-01 12:00:04.040,0.4461729275849704
2020-01-01 12:00:04.042,0.44498557549620704
2020-01-01 12:00:04.044,0.44379744065642623
2020-01-01 12:00:04.046,0.44260852515561433
2020-01-01 12:00:04.048,0.44141883108513075
2020-01-01 12:00:04.050,0.44022836053770503
2020-01-01 12:00:04.052,0.4390371156074313
2020-01-01 12:00:04.054,0.437845098389767
2020-01-01 12:00:04.056,0.43665231098152774
2020-01-01 12:00:04.058,0.4354587554808839
2020-01-01 12:00:04.060,0.4342644339873574
2020-01-01 12:00:04.062,0.43306934860181634
2020-01-01 12:00:04.064,0.4318735014264738
2020-01-01 12:00:04.066,0.43067689456488234
2020-01-01 12:00:04.068,0.429479530121931
2020-01-01 12:00:04.070,0.4282814102038419
2020-01-01 12:00:04.072,0.4270825369181646
2020-01-01 12:00:04.074,0.42588291237377535
2020-01-01 12:00:04.076,0.42468253868087136
2020-01-01 12:00:04.078,0.42348141795096766
2020-01-01 12:00:04.080,0.4222795522968933
2020-01-01 12:00:04.082,0.4210769438327882
2020-01-01 12:00:04.084,0.4198735946740976
2020-01-01 12:00:04.086,0.41866950693757105
2020-01-01 12:00:04.088,0.4174646827412566
2020-01-01 12:00:04.090,0.41625912420449795
2020-01-01 12:00:04.092,0.415052833447931
2020-01-01 12:00:04.094,0.4138458125934783
2020-01-01 12:00:04.096,0.412638063764348
2020-01-01 12:00:04.098,0.4114295890850283
2020-01-01 12:00:04.100,0.4102203906812843
2020-01-01 12:00:04.102,0.4090104706801545
2020-01-01 12:00:04.104,0.40779983120994556
2020-01-01 12:00:04.106,0.4065884744002309
2020-01-01 12:00:04.108,0.4053764023818453
2020-01-01 12:00:04.110,0.40416361728688177
2020-01-01 12:00:04.112,0.402950121248688
2020-01-01 12:00:04.114,0.401735916401861
2020-01-01 12:00:04.116,0.40052100488224596
2020-01-01 12:00:04.118,0.3993053888269305
2020-01-01 12:00:04.120,0.39808907037424185
2020-01-01 12:00:04.122,0.39687205166374295
2020-01-01 12:00:04.124,0.3956543348362274
2020-01-01 12:00:04.126,0.3944359220337181
2020-01-01 12:00:04.128,0.39321681539946163
2020-01-01 12:00:04.130,0.3919970170779252
2020-01-01 12:00:04.132,0.3907765292147932
2020-01-01 12:00:04.134,0.38955535395696156
2020-01-01 12:00:04.136,0.38833349345253665
2020-01-01 12:00:04.138,0.3871109498508299
2020-01-01 12:00:04.140,0.38588772530235416
2020-01-01 12:00:04.142,0.3846638219588207
2020-01-01 12:00:04.144,0.3834392419731335
2020-01-01 12:00:04.146,0.382213987499388
2020-01-01 12:00:04.148,0.3809880606928657
2020-01-01 12:00:04.150,0.37976146371003094
2020-01-01 12:00:04.152,0.378534198708527
2020-01-01 12:00:04.154,0.37730626784717125
2020-01-01 12:00:04.156,0.37607767328595354
2020-01-01 12:00:04.158,0.37484841718603074
2020-01-01 12:00:04.160,0.37361850170972344
2020-01-01 12:00:04.162,0.37238792902051243
2020-01-01 12:00:04.164,0.3711567012830335
2020-01-01 12:00:04.166,0.36992482066307575
2020-01-01 12:00:04.168,0.3686922893275764
2020-01-01 12:00:04.170,0.3674591094446174
2020-01-01 12:00:04.172,0.36622528318342185
2020-01-01 12:00:04.174,0.3649908127143485
2020-01-01 12:00:04.176,0.3637557002088908
2020-01-01 12:00:04.178,0.36251994783967095
2020-01-01 12:00:04.180,0.36128355778043675
2020-01-01 12:00:04.182,0.36004653220605826
2020-01-01 12:00:04.184,0.358808873292522
2020-01-01 12:00:04.186,0.35757058321692986
2020-01-01 12:00:04.188,0.3563316641574938
2020-01-01 12:00:04.190,0.3550921182935318
2020-01-01 12:00:04.192,0.35385194780546514
2020-01-01 12:00:04.194,0.3526111548748125
2020-01-01 12:00:04.196,0.35136974168418866
2020-01-01 12:00:04.198,0.3501277104172991
2020-01-01 12:00:04.200,0.34888506325893653
2020-01-01 12:00:04.202,0.3476418023949775
2020-01-01 12:00:04.204,0.3463979300123767
2020-01-01 12:00:04.206,0.34515344829916594
2020-01-01 12:00:04.208,0.3439083594444483
2020-01-01 12:00:04.210,0.34266266563839504
2020-01-01 12:00:04.212,0.34141636907224177
2020-01-01 12:00:04.214,0.34016947193828323
2020-01-01 12:00:04.216,0.3389219764298719
2020-01-01 12:00:04.218,0.33767388474141224
2020-01-01 12:00:04.220,0.3364251990683576
2020-01-01 12:00:04.222,0.3351759216072065
2020-01-01 12:00:04.224,0.33392605455549723
2020-01-01 12:00:04.226,0.3326756001118064
2020-01-01 12:00:04.228,0.33142456047574353
2020-01-01 12:00:04.230,0.33017293784794743
2020-01-01 12:00:04.232,0.3289207344300829
2020-01-01 12:00:04.234,0.3276679524248351
2020-01-01 12:00:04.236,0.3264145940359082
2020-01-01 12:00:04.238,0.3251606614680199
2020-01-01 12:00:04.240,0.3239061569268979
2020-01-01 12:00:04.242,0.3226510826192763
2020-01-01 12:00:04.244,0.32139544075289034
2020-01-01 12:00:04.246,0.3201392335364749
2020-01-01 12:00:04.248,0.31888246317975877
2020-01-01 12:00:04.250,0.3176251318934615
2020-01-01 12:00:04.252,0.31636724188928955
2020-01-01 12:00:04.254,0.31510879537993125
2020-01-01 12:00:04.256,0.31384979457905476
2020-01-01 12:00:04.258,0.3125902417013031
2020-01-01 12:00:04.260,0.31133013896229034
2020-01-01 12:00:04.262,0.3100694885785981
2020-01-01 12:00:04.264,0.3088082927677703
2020-01-01 12:00:04.266,0.30754655374831125
2020-01-01 12:00:04.268,0.30628427373968065
2020-01-01 12:00:04.270,0.30502145496228966
2020-01-01 12:00:04.272,0.30375809963749767
2020-01-01 12:00:04.274,0.30249420998760657
2020-01-01 12:00:04.276,0.3012297882358594
2020-01-01 12:00:04.278,0.2999648366064348
2020-01-01 12:00:04.280,0.2986993573244436
2020-01-01 12:00:04.282,0.29743335261592496
2020-01-01 12:00:04.284,0.2961668247078413
2020-01-01 12:00:04.286,0.2948997758280764
2020-01-01 12:00:04.288,0.29363220820543023
2020-01-01 12:00:04.290,0.29236412406961515
2020-01-01 12:00:04.292,0.2910955256512525
2020-01-01 12:00:04.294,0.28982641518186714
2020-01-01 12:00:04.296,0.28855679489388564
2020-01-01 12:00:04.298,0.2872866670206312
2020-01-01 12:00:04.300,0.28601603379631985
2020-01-01 12:00:04.302,0.2847448974560569
2020-01-01 12:00:04.304,0.2834732602358314
2020-01-01 12:00:04.306,0.2822011243725148
2020-01-01 12:00:04.308,0.28092849210385523
2020-01-01 12:00:04.310,0.27965536566847404
2020-01-01 12:00:04.312,0.2783817473058618
2020-01-01 12:00:04.314,0.2771076392563748
2020-01-01 12:00:04.316,0.27583304376122963
2020-01-01 12:00:04.318,0.2745579630625014
2020-01-01 12:00:04.320,0.2732823994031183
2020-01-01 12:00:04.322,0.2720063550268582
2020-01-01 12:00:04.324,0.2707298321783449
2020-01-01 12:00:04.326,0.2694528331030425
2020-01-01 12:00:04.328,0.26817536004725434
2020-01-01 12:00:04.330,0.2668974152581169
2020-01-01 12:00:04.332,0.26561900098359637
2020-01-01 12:00:04.334,0.2643401194724855
2020-01-01 12:00:04.336,0.26306077297439734
2020-01-01 12:00:04.338,0.26178096373976445
2020-01-01 12:00:04.340,0.26050069401983267
2020-01-01 12:00:04.342,0.25921996606665804
2020-01-01 12:00:04.344,0.25793878213310306
2020-01-01 12:00:04.346,0.2566571444728309
2020-01-01 12:00:04.348,0.2553750553403043
2020-01-01 12:00:04.350,0.25409251699077967
2020-01-01 12:00:04.352,0.2528095316803036
2020-01-01 12:00:04.354,0.2515261016657094
2020-01-01 12:00:04.356,0.25024222920461126
2020-01-01 12:00:04.358,0.24895791655540295
2020-01-01 12:00:04.360,0.2476731659772522
2020-01-01 12:00:04.362,0.24638797973009705
2020-01-01 12:00:04.364,0.24510236007464226
2020-01-01 12:00:04.366,0.24381630927235382
2020-01-01 12:00:04.368,0.24252982958545727
2020-01-01 12:00:04.370,0.24124292327693225
2020-01-01 12:00:04.372,0.23995559261050883
2020-01-01 12:00:04.374,0.23866783985066392
2020-01-01 12:00:04.376,0.23737966726261572
2020-01-01 12:00:04.378,0.23609107711232213
2020-01-01 12:00:04.380,0.23480207166647518
2020-01-01 12:00:04.382,0.2335126531924974
2020-01-01 12:00:04.384,0.2322228239585383
2020-01-01 12:00:04.386,0.23093258623346866
2020-01-01 12:00:04.388,0.22964194228687904
2020-01-01 12:00:04.390,0.22835089438907424
2020-01-01 12:00:04.392,0.22705944481106954
2020-01-01 12:00:04.394,0.22576759582458727
2020-01-01 12:00:04.396,0.22447534970205105
2020-01-01 12:00:04.398,0.2231827087165843
2020-01-01 12:00:04.400,0.22188967514200472
2020-01-01 12:00:04.402,0.22059625125282048
2020-01-01 12:00:04.404,0.21930243932422683
2020-01-01 12:00:04.406,0.21800824163210025
2020-01-01 12:00:04.408,0.21671366045299714
2020-01-01 12:00:04.410,0.21541869806414804
2020-01-01 12:00:04.412,0.214123356743454
2020-01-01 12:00:04.414,0.21282763876948316
2020-01-01 12:00:04.416,0.2115315464214648
2020-01-01 12:00:04.418,0.21023508197928814
2020-01-01 12:00:04.420,0.2089382477234964
2020-01-01 12:00:04.422,0.20764104593528343
2020-01-01 12:00:04.424,0.20634347889648993
2020-01-01 12:00:04.426,0.20504554888959783
2020-01-01 12:00:04.428,0.20374725819772888
2020-01-01 12:00:04.430,0.20244860910463874
2020-01-01 12:00:04.432,0.20114960389471365
2020-01-01 12:00:04.434,0.1998502448529666
2020-01-01 12:00:04.436,0.19855053426503178
2020-01-01 12:00:04.438,0.197250474417163
2020-01-01 12:00:04.440,0.19595006759622807
2020-01-01 12:00:04.442,0.19464931608970504
2020-01-01 12:00:04.444,0.1933482221856788
2020-01-01 12:00:04.446,0.19204678817283516
2020-01-01 12:00:04.448,0.1907450163404596
2020-01-01 12:00:04.450,0.18944290897843133
2020-01-01 12:00:04.452,0.18814046837721976
2020-01-01 12:00:04.454,0.18683769682788098
2020-01-01 12:00:04.456,0.1855345966220519
2020-01-01 12:00:04.458,0.18423117005194886
2020-01-01 12:00:04.460,0.18292741941036184
2020-01-01 12:00:04.462,0.18162334699065089
2020-01-01 12:00:04.464,0.1803189550867425
2020-01-01 12:00:04.466,0.1790142459931239
2020-01-01 12:00:04.468,0.1777092220048415
2020-01-01 12:00:04.470,0.17640388541749524
2020-01-01 12:00:04.472,0.1750982385272349
2020-01-01 12:00:04.474,0.17379228363075663
2020-01-01 12:00:04.476,0.17248602302529692
2020-01-01 12:00:04.478,0.17117945900863143
2020-01-01 12:00:04.480,0.1698725938790691
2020-01-01 12:00:04.482,0.16856542993544846
2020-01-01 12:00:04.484,0.1672579694771342
2020-01-01 12:00:04.486,0.1659502148040112
2020-01-01 12:00:04.488,0.16464216821648328
2020-01-01 12:00:04.490,0.16333383201546722
2020-01-01 12:00:04.492,0.1620252085023893
2020-01-01 12:00:04.494,0.16071629997918166
2020-01-01 12:00:04.496,0.15940710874827638
2020-01-01 12:00:04.498,0.15809763711260424
2020-01-01 12:00:04.500,0.15678788737558877
2020-01-01 12:00:04.502,0.15547786184114273
2020-01-01 12:00:04.504,0.15416756281366445
2020-01-01 12:00:04.506,0.152856992598032
2020-01-01 12:00:04.508,0.15154615349960188
2020-01-01 12:00:04.510,0.15023504782420302
2020-01-01 12:00:04.512,0.14892367787813335
2020-01-01 12:00:04.514,0.14761204596815608
2020-01-01 12:00:04.516,0.1463001544014939
2020-01-01 12:00:04.518,0.1449880054858276
2020-01-01 12:00:04.520,0.14367560152929018
2020-01-01 12:00:04.522,0.14236294484046327
2020-01-01 12:00:04.524,0.14105003772837357
2020-01-01 12:00:04.526,0.1397368825024869
2020-01-01 12:00:04.528,0.13842348147270683
2020-01-01 12:00:04.530,0.13710983694936893
2020-01-01 12:00:04.532,0.1357959512432371
2020-01-01 12:00:04.534,0.13448182666549982
2020-01-01 12:00:04.536,0.1331674655277646
2020-01-01 12:00:04.538,0.1318528701420562
2020-01-01 12:00:04.540,0.1305380428208112
2020-01-01 12:00:04.542,0.12922298587687397
2020-01-01 12:00:04.544,0.12790770162349294
2020-01-01 12:00:04.546,0.1265921923743168
2020-01-01 12:00:04.548,0.12527646044338858
2020-01-01 12:00:04.550,0.12396050814514455
2020-01-01 12:00:04.552,0.12264433779440796
2020-01-01 12:00:04.554,0.12132795170638579
2020-01-01 12:00:04.556,0.12001135219666484
2020-01-01 12:00:04.558,0.1186945415812061
2020-01-01 12:00:04.560,0.11737752217634313
2020-01-01 12:00:04.562,0.11606029629877643
2020-01-01 12:00:04.564,0.11474286626556959
2020-01-01 12:00:04.566,0.11342523439414583
2020-01-01 12:00:04.568,0.11210740300228206
2020-01-01 12:00:04.570,0.11078937440810749
2020-01-01 12:00:04.572,0.10947115093009777
2020-01-01 12:00:04.574,0.10815273488707136
2020-01-01 12:00:04.576,0.1068341285981859
2020-01-01 12:00:04.578,0.10551533438293237
2020-01-01 12:00:04.580,0.1041963545611336
2020-01-01 12:00:04.582,0.10287719145293853
2020-01-01 12:00:04.584,0.10155784737881846
2020-01-01 12:00:04.586,0.10023832465956348
2020-01-01 12:00:04.588,0.09891862561627658
2020-01-01 12:00:04.590,0.0975987525703723
2020-01-01 12:00:04.592,0.09627870784357073
2020-01-01 12:00:04.594,0.09495849375789403
2020-01-01 12:00:04.596,0.09363811263566266
2020-01-01 12:00:04.598,0.0923175667994896
2020-01-01 12:00:04.600,0.09099685857227892
2020-01-01 12:00:04.602,0.08967599027721984
2020-01-01 12:00:04.604,0.08835496423778322
2020-01-01 12:00:04.606,0.08703378277771777
2020-01-01 12:00:04.608,0.08571244822104433
2020-01-01 12:00:04.610,0.08439096289205433
2020-01-01 12:00:04.612,0.083069329115304
2020-01-01 12:00:04.614,0.08174754921561067
2020-01-01 12:00:04.616,0.08042562551804917
2020-01-01 12:00:04.618,0.07910356034794594
2020-01-01 12:00:04.620,0.0777813560308776
2020-01-01 12:00:04.622,0.07645901489266511
2020-01-01 12:00:04.624,0.07513653925937011
2020-01-01 12:00:04.626,0.07381393145729122
2020-01-01 12:00:04.628,0.07249119381295828
2020-01-01 12:00:04.630,0.07116832865313082
2020-01-01 12:00:04.632,0.06984533830479225
2020-01-01 12:00:04.634,0.06852222509514619
2020-01-01 12:00:04.636,0.06719899135161282
2020-01-01 12:00:04.638,0.065875639401823
2020-01-01 12:00:04.640,0.0645521715736169
2020-01-01 12:00:04.642,0.06322859019503801
2020-01-01 12:00:04.644,0.06190489759432962
2020-01-01 12:00:04.646,0.06058109609993108
2020-01-01 12:00:04.648,0.05925718804047197
2020-01-01 12:00:04.650,0.057933175744770644
2020-01-01 12:00:04.652,0.056609061541828376
2020-01-01 12:00:04.654,0.055284847760825706
2020-01-01 12:00:04.656,0.05396053673111876
2020-01-01 12:00:04.658,0.05263613078223342
2020-01-01 12:00:04.660,0.051311632243863856
2020-01-01 12:00:04.662,0.04998704344586666
2020-01-01 12:00:04.664,0.048662366718257195
2020-01-01 12:00:04.666,0.04733760439120596
2020-01-01 12:00:04.668,0.04601275879503267
2020-01-01 12:00:04.670,0.04468783226020486
2020-01-01 12:00:04.672,0.043362827117332
2020-01-01 12:00:04.674,0.04203774569716181
2020-01-01 12:00:04.676,0.04071259033057666
2020-01-01 12:00:04.678,0.03938736334858766
2020-01-01 12:00:04.680,0.0380620670823332
2020-01-01 12:00:04.682,0.03673670386307313
2020-01-01 12:00:04.684,0.03541127602218506
2020-01-01 12:00:04.686,0.03408578589116071
2020-01-01 12:00:04.688,0.032760235801600056
2020-01-01 12:00:04.690,0.03143462808520987
2020-01-01 12:00:04.692,0.030108965073797837
2020-01-01 12:00:04.694,0.02878324909926893
2020-01-01 12:00:04.696,0.027457482493621708
2020-01-01 12:00:04.698,0.026131667588942475
2020-01-01 12:00:04.700,0.024805806717403824
2020-01-01 12:00:04.702,0.02347990221125876
2020-01-01 12:00:04.704,0.022153956402837044
2020-01-01 12:00:04.706,0.020827971624541534
2020-01-01 12:00:04.708,0.01950195020884231
2020-01-01 12:00:04.710,0.01817589448827522
2020-01-01 12:00:04.712,0.016849806795436024
2020-01-01 12:00:04.714,0.015523689462976721
2020-01-01 12:00:04.716,0.014197544823601882
2020-01-01 12:00:04.718,0.01287137521006279
2020-01-01 12:00:04.720,0.011545182955155983
2020-01-01 12:00:04.722,0.01021897039171739
2020-01-01 12:00:04.724,0.00889273985261866
2020-01-01 12:00:04.726,0.007566493670763505
2020-01-01 12:00:04.728,0.006240234179081824
2020-01-01 12:00:04.730,0.004913963710528259
2020-01-01 12:00:04.732,0.0035876845980763157
2020-01-01 12:00:04.734,0.0022613991747147074
2020-01-01 12:00:04.736,0.0009351097734436912
2020-01-01 12:00:04.738,-0.00039118127273081097
2020-01-01 12:00:04.740,-0.0017174716307986504
2020-01-01 12:00:04.742,-0.003043758967751334
2020-01-01 12:00:04.744,-0.004370040950585682
2020-01-01 12:00:04.746,-0.005696315246307489
2020-01-01 12:00:04.748,-0.007022579521937404
2020-01-01 12:00:04.750,-0.008348831444512369
2020-01-01 12:00:04.752,-0.009675068681091501
2020-01-01 12:00:04.754,-0.01100128889875975
2020-01-01 12:00:04.756,-0.012327489764631558
2020-01-01 12:00:04.758,-0.013653668945856741
2020-01-01 12:00:04.760,-0.014979824109621927
2020-01-01 12:00:04.762,-0.016305952923156435
2020-01-01 12:00:04.764,-0.017632053053735934
2020-01-01 12:00:04.766,-0.01895812216868611
2020-01-01 12:00:04.768,-0.02028415793538853
2020-01-01 12:00:04.770,-0.0216101580212821
2020-01-01 12:00:04.772,-0.02293612009386892
2020-01-01 12:00:04.774,-0.024262041820717978
2020-01-01 12:00:04.776,-0.025587920869469212
2020-01-01 12:00:04.778,-0.026913754907837203
2020-01-01 12:00:04.780,-0.028239541603617028
2020-01-01 12:00:04.782,-0.029565278624685717
2020-01-01 12:00:04.784,-0.030890963639008125
2020-01-01 12:00:04.786,-0.032216594314640586
2020-01-01 12:00:04.788,-0.033542168319734576
2020-01-01 12:00:04.790,-0.034867683322542586
2020-01-01 12:00:04.792,-0.036193136991419565
2020-01-01 12:00:04.794,-0.037518526994828806
2020-01-01 12:00:04.796,-0.03884385100134557
2020-01-01 12:00:04.798,-0.04016910667966079
2020-01-01 12:00:04.800,-0.04149429169858689
2020-01-01 12:00:04.802,-0.04281940372705931
2020-01-01 12:00:04.804,-0.044144440434142264
2020-01-01 12:00:04.806,-0.04546939948903251
2020-01-01 12:00:04.808,-0.04679427856106293
2020-01-01 12:00:04.810,-0.04811907531970843
2020-01-01 12:00:04.812,-0.049443787434587404
2020-01-01 12:00:04.814,-0.05076841257546755
2020-01-01 12:00:04.816,-0.05209294841226957
2020-01-01 12:00:04.818,-0.05341739261507082
2020-01-01 12:00:04.820,-0.054741742854111174
2020-01-01 12:00:04.822,-0.05606599679979445
2020-01-01 12:00:04.824,-0.057390152122694306
2020-01-01 12:00:04.826,-0.05871420649355787
2020-01-01 12:00:04.828,-0.06003815758330943
2020-01-01 12:00:04.830,-0.061362003063056246
2020-01-01 12:00:04.832,-0.06268574060409005
2020-01-01 12:00:04.834,-0.06400936787789287
2020-01-01 12:00:04.836,-0.06533288255614071
2020-01-01 12:00:04.838,-0.06665628231070718
2020-01-01 12:00:04.840,-0.0679795648136694
2020-01-01 12:00:04.842,-0.06930272773730939
2020-01-01 12:00:04.844,-0.07062576875411995
2020-01-01 12:00:04.846,-0.07194868553680835
2020-01-01 12:00:04.848,-0.07327147575829991
2020-01-01 12:00:04.850,-0.07459413709174396
2020-01-01 12:00:04.852,-0.07591666721051518
2020-01-01 12:00:04.854,-0.07723906378821951
2020-01-01 12:00:04.856,-0.07856132449869782
2020-01-01 12:00:04.858,-0.07988344701602951
2020-01-01 12:00:04.860,-0.0812054290145384
2020-01-01 12:00:04.862,-0.08252726816879416
2020-01-01 12:00:04.864,-0.08384896215361819
2020-01-01 12:00:04.866,-0.08517050864408723
2020-01-01 12:00:04.868,-0.08649190531553705
2020-01-01 12:00:04.870,-0.08781314984356825
2020-01-01 12:00:04.872,-0.08913423990404776
2020-01-01 12:00:04.874,-0.09045517317311466
2020-01-01 12:00:04.876,-0.09177594732718385
2020-01-01 12:00:04.878,-0.09309656004294964
2020-01-01 12:00:04.880,-0.09441700899739167
2020-01-01 12:00:04.882,-0.09573729186777631
2020-01-01 12:00:04.884,-0.09705740633166253
2020-01-01 12:00:04.886,-0.09837735006690555
2020-01-01 12:00:04.888,-0.09969712075166043
2020-01-01 12:00:04.890,-0.10101671606438797
2020-01-01 12:00:04.892,-0.10233613368385616
2020-01-01 12:00:04.894,-0.10365537128914598
2020-01-01 12:00:04.896,-0.10497442655965507
2020-01-01 12:00:04.898,-0.10629329717510135
2020-01-01 12:00:04.900,-0.10761198081552889
2020-01-01 12:00:04.902,-0.10893047516130935
2020-01-01 12:00:04.904,-0.1102487778931478
2020-01-01 12:00:04.906,-0.11156688669208635
2020-01-01 12:00:04.908,-0.11288479923950784
2020-01-01 12:00:04.910,-0.1142025132171416
2020-01-01 12:00:04.912,-0.115520026307065
2020-01-01 12:00:04.914,-0.11683733619170915
2020-01-01 12:00:04.916,-0.11815444055386265
2020-01-01 12:00:04.918,-0.11947133707667519
2020-01-01 12:00:04.920,-0.12078802344366335
2020-01-01 12:00:04.922,-0.12210449733871208
2020-01-01 12:00:04.924,-0.12342075644608051
2020-01-01 12:00:04.926,-0.12473679845040563
2020-01-01 12:00:04.928,-0.1260526210367058
2020-01-01 12:00:04.930,-0.12736822189038677
2020-01-01 12:00:04.932,-0.1286835986972429
2020-01-01 12:00:04.934,-0.12999874914346324
2020-01-01 12:00:04.936,-0.13131367091563487
2020-01-01 12:00:04.938,-0.13262836170074677
2020-01-01 12:00:04.940,-0.13394281918619552
2020-01-01 12:00:04.942,-0.1352570410597868
2020-01-01 12:00:04.944,-0.13657102500974116
2020-01-01 12:00:04.946,-0.13788476872469763
2020-01-01 12:00:04.948,-0.13919826989371747
2020-01-01 12:00:04.950,-0.14051152620628984
2020-01-01 12:00:04.952,-0.14182453535233333
2020-01-01 12:00:04.954,-0.14313729502220174
2020-01-01 12:00:04.956,-0.1444498029066877
2020-01-01 12:00:04.958,-0.14576205669702633
2020-01-01 12:00:04.960,-0.14707405408490096
2020-01-01 12:00:04.962,-0.1483857927624447
2020-01-01 12:00:04.964,-0.1496972704222462
2020-01-01 12:00:04.966,-0.1510084847573532
2020-01-01 12:00:04.968,-0.1523194334612762
2020-01-01 12:00:04.970,-0.15363011422799427
2020-01-01 12:00:04.972,-0.15494052475195655
2020-01-01 12:00:04.974,-0.1562506627280879
2020-01-01 12:00:04.976,-0.15756052585179267
2020-01-01 12:00:04.978,-0.15887011181895822
2020-01-01 12:00:04.980,-0.16017941832596072
2020-01-01 12:00:04.982,-0.1614884430696667
2020-01-01 12:00:04.984,-0.16279718374743865
2020-01-01 12:00:04.986,-0.16410563805713888
2020-01-01 12:00:04.988,-0.16541380369713288
2020-01-01 12:00:04.990,-0.1667216783662953
2020-01-01 12:00:04.992,-0.16802925976401129
2020-01-01 12:00:04.994,-0.1693365455901823
2020-01-01 12:00:04.996,-0.17064353354522974
2020-01-01 12:00:04.998,-0.17195022133009852
2020-01-01 12:00:05.000,-0.1732566066462629
2020-01-01 12:00:05.002,-0.17456268719572787
2020-01-01 12:00:05.004,-0.17586846068103495
2020-01-01 12:00:05.006,-0.17717392480526586
2020-01-01 12:00:05.008,-0.17847907727204637
2020-01-01 12:00:05.010,-0.1797839157855502
2020-01-01 12:00:05.012,-0.1810884380505045
2020-01-01 12:00:05.014,-0.18239264177219147
2020-01-01 12:00:05.016,-0.1836965246564541
2020-01-01 12:00:05.018,-0.1850000844096997
2020-01-01 12:00:05.020,-0.18630331873890357
2020-01-01 12:00:05.022,-0.18760622535161475
2020-01-01 12:00:05.024,-0.18890880195595744
2020-01-01 12:00:05.026,-0.19021104626063676
2020-01-01 12:00:05.028,-0.19151295597494242
2020-01-01 12:00:05.030,-0.19281452880875222
2020-01-01 12:00:05.032,-0.19411576247253778
2020-01-01 12:00:05.034,-0.19541665467736619
2020-01-01 12:00:05.036,-0.19671720313490546
2020-01-01 12:00:05.038,-0.19801740555742836
2020-01-01 12:00:05.040,-0.1993172596578159
2020-01-01 12:00:05.042,-0.20061676314956312
2020-01-01 12:00:05.044,-0.20191591374678045
2020-01-01 12:00:05.046,-0.20321470916419956
2020-01-01 12:00:05.048,-0.20451314711717686
2020-01-01 12:00:05.050,-0.20581122532169713
2020-01-01 12:00:05.052,-0.2071089414943793
2020-01-01 12:00:05.054,-0.20840629335247784
2020-01-01 12:00:05.056,-0.2097032786138884
2020-01-01 12:00:05.058,-0.2109998949971516
2020-01-01 12:00:05.060,-0.2122961402214565
2020-01-01 12:00:05.062,-0.2135920120066462
2020-01-01 12:00:05.064,-0.2148875080732196
2020-01-01 12:00:05.066,-0.2161826261423368
2020-01-01 12:00:05.068,-0.2174773639358229
2020-01-01 12:00:05.070,-0.2187717191761714
2020-01-01 12:00:05.072,-0.22006568958655012
2020-01-01 12:00:05.074,-0.22135927289080246
2020-01-01 12:00:05.076,-0.2226524668134532
2020-01-01 12:00:05.078,-0.22394526907971207
2020-01-01 12:00:05.080,-0.22523767741547732
2020-01-01 12:00:05.082,-0.2265296895473414
2020-01-01 12:00:05.084,-0.22782130320259247
2020-01-01 12:00:05.086,-0.22911251610921998
2020-01-01 12:00:05.088,-0.2304033259959184
2020-01-01 12:00:05.090,-0.23169373059209064
2020-01-01 12:00:05.092,-0.23298372762785385
2020-01-01 12:00:05.094,-0.23427331483404082
2020-01-01 12:00:05.096,-0.23556248994220563
2020-01-01 12:00:05.098,-0.2368512506846273
2020-01-01 12:00:05.100,-0.23813959479431338
2020-01-01 12:00:05.102,-0.2394275200050054
2020-01-01 12:00:05.104,-0.24071502405118064
2020-01-01 12:00:05.106,-0.24200210466805758
2020-01-01 12:00:05.108,-0.2432887595915995
2020-01-01 12:00:05.110,-0.24457498655851823
2020-01-01 12:00:05.112,-0.24586078330627945
2020-01-01 12:00:05.114,-0.2471461475731045
2020-01-01 12:00:05.116,-0.24843107709797582
2020-01-01 12:00:05.118,-0.24971556962064062
2020-01-01 12:00:05.120,-0.25099962288161437
2020-01-01 12:00:05.122,-0.2522832346221866
2020-01-01 12:00:05.124,-0.253566402584422
2020-01-01 12:00:05.126,-0.25484912451116654
2020-01-01 12:00:05.128,-0.2561313981460506
2020-01-01 12:00:05.130,-0.25741322123349286
2020-01-01 12:00:05.132,-0.2586945915187058
2020-01-01 12:00:05.134,-0.2599755067476969
2020-01-01 12:00:05.136,-0.26125596466727485
2020-01-01 12:00:05.138,-0.26253596302505255
2020-01-01 12:00:05.140,-0.263815499569451
2020-01-01 12:00:05.142,-0.26509457204970466
2020-01-01 12:00:05.144,-0.2663731782158632
2020-01-01 12:00:05.146,-0.26765131581879686
2020-01-01 12:00:05.148,-0.26892898261020026
2020-01-01 12:00:05.150,-0.2702061763425955
2020-01-01 12:00:05.152,-0.27148289476933846
2020-01-01 12:00:05.154,-0.2727591356446195
2020-01-01 12:00:05.156,-0.27403489672346965
2020-01-01 12:00:05.158,-0.27531017576176375
2020-01-01 12:00:05.160,-0.2765849705162243
2020-01-01 12:00:05.162,-0.27785927874442695
2020-01-01 12:00:05.164,-0.27913309820480176
2020-01-01 12:00:05.166,-0.2804064266566391
2020-01-01 12:00:05.168,-0.28167926186009307
2020-01-01 12:00:05.170,-0.2829516015761848
2020-01-01 12:00:05.172,-0.2842234435668086
2020-01-01 12:00:05.174,-0.2854947855947327
2020-01-01 12:00:05.176,-0.2867656254236054
2020-01-01 12:00:05.178,-0.2880359608179584
2020-01-01 12:00:05.180,-0.28930578954321023
2020-01-01 12:00:05.182,-0.29057510936567194
2020-01-01 12:00:05.184,-0.2918439180525485
2020-01-01 12:00:05.186,-0.29311221337194454
2020-01-01 12:00:05.188,-0.29437999309286755
2020-01-01 12:00:05.190,-0.29564725498523164
2020-01-01 12:00:05.192,-0.2969139968198631
2020-01-01 12:00:05.194,-0.2981802163685017
2020-01-01 12:00:05.196,-0.29944591140380644
2020-01-01 12:00:05.198,-0.30071107969935884
2020-01-01 12:00:05.200,-0.3019757190296667
2020-01-01 12:00:05.202,-0.3032398271701694
2020-01-01 12:00:05.204,-0.3045034018972396
2020-01-01 12:00:05.206,-0.3057664409881886
2020-01-01 12:00:05.208,-0.30702894222127
2020-01-01 12:00:05.210,-0.30829090337568293
2020-01-01 12:00:05.212,-0.3095523222315779
2020-01-01 12:00:05.214,-0.3108131965700581
2020-01-01 12:00:05.216,-0.312073524173185
2020-01-01 12:00:05.218,-0.31333330282398175
2020-01-01 12:00:05.220,-0.31459253030643664
2020-01-01 12:00:05.222,-0.31585120440550896
2020-01-01 12:00:05.224,-0.31710932290713
2020-01-01 12:00:05.226,-0.3183668835982088
2020-01-01 12:00:05.228,-0.31962388426663574
2020-01-01 12:00:05.230,-0.3208803227012857
2020-01-01 12:00:05.232,-0.322136196692024
2020-01-01 12:00:05.234,-0.3233915040297074
2020-01-01 12:00:05.236,-0.32464624250619006
2020-01-01 12:00:05.238,-0.32590040991432667
2020-01-01 12:00:05.240,-0.3271540040479764
2020-01-01 12:00:05.242,-0.32840702270200656
2020-01-01 12:00:05.244,-0.3296594636722979
2020-01-01 12:00:05.246,-0.3309113247557462
2020-01-01 12:00:05.248,-0.33216260375026757
2020-01-01 12:00:05.250,-0.3334132984548021
2020-01-01 12:00:05.252,-0.3346634066693173
2020-01-01 12:00:05.254,-0.3359129261948136
2020-01-01 12:00:05.256,-0.3371618548333256
2020-01-01 12:00:05.258,-0.33841019038792786
2020-01-01 12:00:05.260,-0.3396579306627381
2020-01-01 12:00:05.262,-0.3409050734629207
2020-01-01 12:00:05.264,-0.3421516165946925
2020-01-01 12:00:05.266,-0.3433975578653237
2020-01-01 12:00:05.268,-0.3446428950831438
2020-01-01 12:00:05.270,-0.34588762605754464
2020-01-01 12:00:05.272,-0.3471317485989843
2020-01-01 12:00:05.274,-0.34837526051899226
2020-01-01 12:00:05.276,-0.3496181596301708
2020-01-01 12:00:05.278,-0.3508604437462006
2020-01-01 12:00:05.280,-0.3521021106818443
2020-01-01 12:00:05.282,-0.3533431582529496
2020-01-01 12:00:05.284,-0.35458358427645503
2020-01-01 12:00:05.286,-0.3558233865703911
2020-01-01 12:00:05.288,-0.35706256295388605
2020-01-01 12:00:05.290,-0.358301111247169
2020-01-01 12:00:05.292,-0.35953902927157355
2020-01-01 12:00:05.294,-0.3607763148495433
2020-01-01 12:00:05.296,-0.362012965804633
2020-01-01 12:00:05.298,-0.3632489799615141
2020-01-01 12:00:05.300,-0.3644843551459783
2020-01-01 12:00:05.302,-0.365719089184941
2020-01-01 12:00:05.304,-0.3669531799064463
2020-01-01 12:00:05.306,-0.368186625139669
2020-01-01 12:00:05.308,-0.3694194227149196
2020-01-01 12:00:05.310,-0.37065157046364794
2020-01-01 12:00:05.312,-0.37188306621844647
2020-01-01 12:00:05.314,-0.3731139078130558
2020-01-01 12:00:05.316,-0.37434409308236594
2020-01-01 12:00:05.318,-0.37557361986242194
2020-01-01 12:00:05.320,-0.37680248599042704
2020-01-01 12:00:05.322,-0.37803068930474626
2020-01-01 12:00:05.324,-0.3792582276449117
2020-01-01 12:00:05.326,-0.38048509885162407
2020-01-01 12:00:05.328,-0.3817113007667579
2020-01-01 12:00:05.330,-0.38293683123336514
2020-01-01 12:00:05.332,-0.38416168809567836
2020-01-01 12:00:05.334,-0.38538586919911616
2020-01-01 12:00:05.336,-0.3866093723902849
2020-01-01 12:00:05.338,-0.38783219551698356
2020-01-01 12:00:05.340,-0.38905433642820747
2020-01-01 12:00:05.342,-0.39027579297415166
2020-01-01 12:00:05.344,-0.39149656300621616
2020-01-01 12:00:05.346,-0.3927166443770074
2020-01-01 12:00:05.348,-0.39393603494034346
2020-01-01 12:00:05.350,-0.39515473255125794
2020-01-01 12:00:05.352,-0.3963727350660026
2020-01-01 12:00:05.354,-0.3975900403420534
2020-01-01 12:00:05.356,-0.39880664623811135
2020-01-01 12:00:05.358,-0.40002255061410824
2020-01-01 12:00:05.360,-0.40123775133120976
2020-01-01 12:00:05.362,-0.40245224625181913
2020-01-01 12:00:05.364,-0.4036660332395821
2020-01-01 12:00:05.366,-0.4048791101593887
2020-01-01 12:00:05.368,-0.40609147487737834
2020-01-01 12:00:05.370,-0.4073031252609431
2020-01-01 12:00:05.372,-0.40851405917873135
2020-01-01 12:00:05.374,-0.40972427450065296
2020-01-01 12:00:05.376,-0.41093376909788054
2020-01-01 12:00:05.378,-0.41214254084285507
2020-01-01 12:00:05.380,-0.4133505876092888
2020-01-01 12:00:05.382,-0.41455790727216907
2020-01-01 12:00:05.384,-0.41576449770776336
2020-01-01 12:00:05.386,-0.41697035679362066
2020-01-01 12:00:05.388,-0.41817548240857694
2020-01-01 12:00:05.390,-0.41937987243275826
2020-01-01 12:00:05.392,-0.42058352474758426
2020-01-01 12:00:05.394,-0.4217864372357735
2020-01-01 12:00:05.396,-0.4229886077813447
2020-01-01 12:00:05.398,-0.42419003426962204
2020-01-01 12:00:05.400,-0.42539071458723865
2020-01-01 12:00:05.402,-0.4265906466221396
2020-01-01 12:00:05.404,-0.4277898282635877
2020-01-01 12:00:05.406,-0.4289882574021643
2020-01-01 12:00:05.408,-0.430185931929775
2020-01-01 12:00:05.410,-0.4313828497396527
2020-01-01 12:00:05.412,-0.432579008726361
2020-01-01 12:00:05.414,-0.43377440678579965
2020-01-01 12:00:05.416,-0.43496904181520557
2020-01-01 12:00:05.418,-0.43616291171315824
2020-01-01 12:00:05.420,-0.4373560143795832
2020-01-01 12:00:05.422,-0.43854834771575507
2020-01-01 12:00:05.424,-0.43973990962430304
2020-01-01 12:00:05.426,-0.440930698009212
2020-01-01 12:00:05.428,-0.4421207107758279
2020-01-01 12:00:05.430,-0.44330994583086114
2020-01-01 12:00:05.432,-0.4444984010823897
2020-01-01 12:00:05.434,-0.4456860744398644
2020-01-01 12:00:05.436,-0.4468729638141104
2020-01-01 12:00:05.438,-0.4480590671173322
2020-01-01 12:00:05.440,-0.449244382263117
2020-01-01 12:00:05.442,-0.45042890716643824
2020-01-01 12:00:05.444,-0.45161263974366034
2020-01-01 12:00:05.446,-0.4527955779125405
2020-01-01 12:00:05.448,-0.4539777195922335
2020-01-01 12:00:05.450,-0.4551590627032953
2020-01-01 12:00:05.452,-0.45633960516768635
2020-01-01 12:00:05.454,-0.4575193449087763
2020-01-01 12:00:05.456,-0.45869827985134604
2020-01-01 12:00:05.458,-0.4598764079215922
2020-01-01 12:00:05.460,-0.4610537270471309
2020-01-01 12:00:05.462,-0.4622302351570008
2020-01-01 12:00:05.464,-0.4634059301816683
2020-01-01 12:00:05.466,-0.46458081005302915
2020-01-01 12:00:05.468,-0.465754872704413
2020-01-01 12:00:05.470,-0.46692811607058726
2020-01-01 12:00:05.472,-0.46810053808776053
2020-01-01 12:00:05.474,-0.4692721366935856
2020-01-01 12:00:05.476,-0.470442909827165
2020-01-01 12:00:05.478,-0.47161285542905224
2020-01-01 12:00:05.480,-0.4727819714412567
2020-01-01 12:00:05.482,-0.4739502558072471
2020-01-01 12:00:05.484,-0.47511770647195467
2020-01-01 12:00:05.486,-0.4762843213817784
2020-01-01 12:00:05.488,-0.4774500984845862
2020-01-01 12:00:05.490,-0.4786150357297201
2020-01-01 12:00:05.492,-0.4797791310679994
2020-01-01 12:00:05.494,-0.4809423824517242
2020-01-01 12:00:05.496,-0.4821047878346801
2020-01-01 12:00:05.498,-0.48326634517213973
2020-01-01 12:00:05.500,-0.484427052420868
2020-01-01 12:00:05.502,-0.485586907539125
2020-01-01 12:00:05.504,-0.4867459084866694
2020-01-01 12:00:05.506,-0.48790405322476366
2020-01-01 12:00:05.508,-0.4890613397161751
2020-01-01 12:00:05.510,-0.4902177659251812
2020-01-01 12:00:05.512,-0.49137332981757254
2020-01-01 12:00:05.514,-0.4925280293606564
2020-01-01 12:00:05.516,-0.4936818625232616
2020-01-01 12:00:05.518,-0.4948348272757397
2020-01-01 12:00:05.520,-0.49598692158997026
2020-01-01 12:00:05.522,-0.49713814343936397
2020-01-01 12:00:05.524,-0.49828849079886595
2020-01-01 12:00:05.526,-0.4994379616449606
2020-01-01 12:00:05.528,-0.5005865539556732
2020-01-01 12:00:05.530,-0.5017342657105744
2020-01-01 12:00:05.532,-0.5028810948907844
